#Wave		#Intensity
1.461856	15.985311
1.461934	11.988982
1.462011	15.982436
1.462089	23.969345
1.462167	15.976691
1.462245	0.000000
1.462323	3.992737
1.462401	23.952118
1.462479	7.982605
1.462557	19.952925
1.462635	15.959472
1.462713	15.956604
1.462791	3.988434
1.462869	15.950871
1.462947	15.948006
1.463025	15.945141
1.463103	15.942276
1.463181	0.000000
1.463260	11.952413
1.463338	15.933687
1.463416	11.948119
1.463494	11.945973
1.463572	19.906380
1.463650	11.941683
1.463729	15.919385
1.463807	11.937395
1.463885	11.935251
1.463963	7.955406
1.464041	19.884943
1.464120	15.905098
1.464198	7.951121
1.464276	23.849081
1.464355	7.948267
1.464433	23.840519
1.464511	11.918119
1.464590	7.943987
1.464668	7.942561
1.464746	11.911703
1.464825	15.879419
1.464903	19.845713
1.464982	7.936860
1.465060	7.935435
1.465138	15.868022
1.465217	11.898881
1.465295	11.896745
1.465374	7.929740
1.465452	19.820791
1.465531	11.890341
1.465609	11.888207
1.465688	3.962024
1.465767	19.806568
1.465845	23.763617
1.465924	19.799459
1.466002	15.836725
1.466081	23.750824
1.466160	15.831041
1.466238	15.828200
1.466317	7.912680
1.466395	11.866891
1.466474	11.864761
1.466553	15.816842
1.466632	11.860503
1.466710	3.952792
1.466789	15.808330
1.466868	3.951373
1.466947	23.703983
1.467025	23.699730
1.467104	11.847739
1.467183	7.897075
1.467262	15.791316
1.467341	35.524086
1.467420	23.678474
1.467498	11.837112
1.467577	11.834988
1.467656	23.665728
1.467735	27.605061
1.467814	0.000000
1.467893	11.826494
1.467972	11.824372
1.468051	15.763000
1.468130	7.880085
1.468209	11.818007
1.468288	11.815886
1.468367	15.751686
1.468446	7.874430
1.468525	19.682541
1.468604	15.743206
1.468683	7.870190
1.468762	7.868777
1.468841	15.734730
1.468920	19.664881
1.469000	7.864541
1.469079	7.863129
1.469158	15.723434
1.469237	3.930153
1.469316	15.717789
1.469396	7.857483
1.469475	23.568218
1.469554	3.927331
1.469633	7.853252
1.469713	3.925921
1.469792	15.700863
1.469871	19.622555
1.469950	11.771419
1.470030	7.846203
1.470109	15.689588
1.470188	7.843385
1.470268	27.446917
1.470347	11.760852
1.470427	0.000000
1.470506	7.837751
1.470585	7.836343
1.470665	7.834935
1.470744	11.750292
1.470824	11.748180
1.470903	19.576782
1.470983	19.573265
1.471062	19.569748
1.471142	11.739738
1.471221	15.650172
1.471301	7.823680
1.471380	15.644547
1.471460	15.641735
1.471540	3.909731
1.471619	7.818057
1.471699	3.908325
1.471779	15.630491
1.471858	15.627682
1.471938	19.531090
1.472018	15.622062
1.472097	15.619253
1.472177	15.616445
1.472257	11.710227
1.472336	7.805414
1.472416	11.706016
1.472496	31.210426
1.472576	11.701804
1.472656	7.799799
1.472735	11.697595
1.472815	11.695490
1.472895	7.795590
1.472975	27.279657
1.473055	11.689178
1.473135	15.582766
1.473215	15.579961
1.473294	11.682867
1.473374	11.680764
1.473454	19.464436
1.473534	7.784373
1.473614	11.674457
1.473694	7.781570
1.473774	11.670253
1.473854	15.557535
1.473934	15.554733
1.474014	15.551932
1.474094	7.774566
1.474174	15.546329
1.474254	3.885882
1.474335	19.425911
1.474415	11.653446
1.474495	7.767564
1.474575	11.649247
1.474655	11.647147
1.474735	27.171780
1.474815	0.000000
1.474896	7.760567
1.474976	15.518335
1.475056	23.273306
1.475136	7.756370
1.475217	11.632457
1.475297	19.383932
1.475377	11.628262
1.475458	15.501553
1.475538	15.498755
1.475618	7.747980
1.475698	11.619873
1.475779	11.617776
1.475859	11.615680
1.475940	27.098360
1.476020	11.611487
1.476101	0.000000
1.476181	11.607295
1.476261	15.473599
1.476342	15.470805
1.476422	11.601009
1.476503	3.866305
1.476583	11.596819
1.476664	11.594724
1.476744	11.592629
1.476825	11.590535
1.476905	11.588441
1.476986	11.586347
1.477067	11.584252
1.477147	3.860720
1.477228	11.580066
1.477309	7.718648
1.477389	7.717252
1.477470	11.573786
1.477550	11.571692
1.477631	15.426133
1.477712	11.567507
1.477793	15.420553
1.477873	30.835526
1.477954	11.561230
1.478035	19.265230
1.478116	19.261744
1.478197	11.554955
1.478277	11.552863
1.478358	19.251286
1.478439	15.398240
1.478520	15.395452
1.478601	-3.848166
1.478682	11.542407
1.478762	3.846772
1.478843	7.692150
1.478924	7.690757
1.479005	7.689363
1.479086	7.687970
1.479167	15.373153
1.479248	3.842592
1.479329	19.209475
1.479410	15.364793
1.479491	11.521505
1.479572	11.519416
1.479653	11.517326
1.479734	3.838412
1.479815	3.837716
1.479897	11.511059
1.479978	7.672647
1.480059	11.506882
1.480140	15.339725
1.480221	3.834235
1.480302	7.667078
1.480384	15.331370
1.480465	19.160732
1.480546	15.325803
1.480627	3.830755
1.480708	19.150293
1.480790	19.146814
1.480871	3.828667
1.480952	11.483913
1.481034	11.481826
1.481115	7.653159
1.481196	19.129419
1.481278	11.475565
1.481359	7.648985
1.481440	3.823797
1.481522	22.938608
1.481603	11.467217
1.481685	7.643421
1.481766	7.642030
1.481848	7.640639
1.481929	3.819624
1.482010	11.456786
1.482092	7.636467
1.482173	3.817538
1.482255	7.633686
1.482337	3.816148
1.482418	11.446357
1.482500	15.259028
1.482581	7.628124
1.482663	15.253468
1.482745	11.438015
1.482826	15.247907
1.482908	7.622563
1.482990	0.000000
1.483071	-3.809892
1.483153	3.809197
1.483235	3.808502
1.483316	19.039034
1.483398	3.807112
1.483480	15.225668
1.483562	15.222889
1.483643	7.610055
1.483725	0.000000
1.483807	19.018190
1.483889	11.408830
1.483971	7.604497
1.484053	11.404661
1.484134	15.203437
1.484216	0.000000
1.484298	18.997349
1.484380	15.195102
1.484462	11.394242
1.484544	11.392159
1.484626	3.796692
1.484708	15.183990
1.484790	22.771816
1.484872	11.383825
1.484954	7.587828
1.485036	22.759317
1.485118	15.170101
1.485200	11.375492
1.485282	15.164546
1.485364	15.161769
1.485446	15.158992
1.485529	11.367161
1.485611	15.153438
1.485693	7.575330
1.485775	7.573942
1.485857	15.145107
1.485940	7.571165
1.486022	0.000000
1.486104	11.352583
1.486186	7.567000
1.486269	7.565612
1.486351	11.346336
1.486433	7.562836
1.486515	0.000000
1.486598	7.560060
1.486680	7.558671
1.486763	11.335925
1.486845	7.555896
1.486927	11.331761
1.487010	11.329679
1.487092	11.327598
1.487174	15.100688
1.487257	15.097913
1.487339	18.868921
1.487422	11.319271
1.487504	7.544793
1.487587	11.315108
1.487669	3.771009
1.487752	7.540630
1.487835	30.156971
1.487917	7.537855
1.488000	15.072935
1.488082	11.302620
1.488165	15.067385
1.488248	11.298458
1.488330	11.296376
1.488413	7.529530
1.488495	7.528143
1.488578	3.763378
1.488661	11.288053
1.488744	11.285972
1.488826	7.522593
1.488909	3.760603
1.488992	15.039639
1.489075	3.759216
1.489157	3.758523
1.489240	11.273486
1.489323	0.000000
1.489406	15.025766
1.489489	7.511496
1.489572	3.755055
1.489655	11.263083
1.489737	7.507335
1.489820	11.258923
1.489903	7.504561
1.489986	7.503174
1.490069	18.754469
1.490152	3.750200
1.490235	7.499013
1.490318	14.995254
1.490401	0.000000
1.490484	11.242279
1.490567	11.240199
1.490650	18.730198
1.490734	14.981385
1.490817	11.233958
1.490900	14.975838
1.490983	7.486532
1.491066	7.485146
1.491149	14.967518
1.491232	11.223558
1.491316	3.740493
1.491399	7.479599
1.491482	0.000000
1.491565	11.215239
1.491649	7.475439
1.491732	3.737026
1.491815	11.208999
1.491898	14.942558
1.491982	11.204839
1.492065	22.405518
1.492148	14.934238
1.492232	18.664331
1.492315	14.928693
1.492399	11.194440
1.492482	14.923147
1.492566	7.460187
1.492649	7.458801
1.492732	18.643536
1.492816	11.184042
1.492899	18.636604
1.492983	11.179882
1.493066	18.629671
1.493150	11.175723
1.493233	3.724548
1.493317	18.619274
1.493401	3.723162
1.493484	11.167405
1.493568	11.165326
1.493651	14.884329
1.493735	7.440778
1.493819	14.878783
1.493902	11.157008
1.493986	14.873239
1.494070	11.152849
1.494153	11.150770
1.494237	7.432461
1.494321	11.146611
1.494405	7.429688
1.494489	0.000000
1.494572	7.426916
1.494656	-3.712765
1.494740	0.000000
1.494824	-3.711379
1.494908	14.842743
1.494992	7.419985
1.495076	11.127898
1.495160	7.417213
1.495243	11.123740
1.495327	14.828881
1.495411	11.119582
1.495495	11.117503
1.495579	7.410283
1.495663	18.522242
1.495747	7.407511
1.495831	18.515312
1.495915	7.404738
1.495999	25.911734
1.496083	7.401967
1.496168	14.801161
1.496252	11.098792
1.496336	18.494522
1.496420	7.396423
1.496504	0.000000
1.496588	11.090476
1.496673	7.392265
1.496757	3.695440
1.496841	14.778986
1.496925	3.694054
1.497010	18.466803
1.497094	11.078003
1.497178	7.383950
1.497262	11.073846
1.497347	18.452946
1.497431	18.449480
1.497515	14.756813
1.497600	3.688510
1.497684	11.063452
1.497769	18.435623
1.497853	7.372863
1.497937	11.057216
1.498022	0.000000
1.498106	7.368706
1.498191	14.734640
1.498275	11.048902
1.498360	7.364549
1.498444	11.044744
1.498529	18.404444
1.498613	14.720783
1.498698	18.397514
1.498783	14.715240
1.498867	18.390587
1.498952	18.387123
1.499037	14.706926
1.499121	11.028116
1.499206	11.026038
1.499291	11.023959
1.499375	11.021881
1.499460	11.019803
1.499545	14.690299
1.499629	18.359411
1.499714	14.684757
1.499799	7.340993
1.499884	7.339608
1.499969	22.014666
1.500054	11.005255
1.500138	3.667726
1.500223	7.334065
1.500308	7.332680
1.500393	14.662589
1.500478	21.989727
1.500563	10.992785
1.500648	10.990707
1.500733	18.314383
1.500818	18.310919
1.500903	18.307455
1.500988	10.982395
1.501073	21.960634
1.501158	10.978240
1.501243	14.634882
1.501328	10.974084
1.501413	10.972006
1.501498	7.313285
1.501583	3.655950
1.501668	10.965773
1.501754	21.927389
1.501839	25.577106
1.501924	14.612719
1.502009	14.609948
1.502094	14.607178
1.502180	14.604407
1.502265	18.252047
1.502350	10.949150
1.502435	10.947073
1.502521	10.944995
1.502606	18.238195
1.502691	3.646947
1.502777	3.646254
1.502862	10.936686
1.502947	18.224346
1.503033	7.288353
1.503118	14.573937
1.503204	10.928375
1.503289	10.926298
1.503375	3.641407
1.503460	21.844288
1.503546	18.200111
1.503631	7.278660
1.503716	3.638638
1.503802	3.637945
1.503888	7.274505
1.503973	10.909681
1.504059	18.179340
1.504144	0.000000
1.504230	18.172417
1.504316	18.168955
1.504401	10.899296
1.504487	14.529626
1.504573	7.263428
1.504658	3.631022
1.504744	7.260659
1.504830	10.888912
1.504916	7.257891
1.505001	10.884759
1.505087	7.255122
1.505173	14.507475
1.505259	14.504706
1.505345	7.250968
1.505430	14.499168
1.505516	10.872300
1.505602	18.117041
1.505688	21.736296
1.505774	14.488095
1.505860	21.727991
1.505946	18.103199
1.506032	18.099737
1.506118	21.715534
1.506204	7.237127
1.506290	3.617872
1.506376	3.617180
1.506462	10.849463
1.506548	10.847387
1.506634	18.075520
1.506720	18.072060
1.506806	7.227440
1.506892	7.226056
1.506979	3.612336
1.507065	10.834933
1.507151	14.443810
1.507237	14.441043
1.507323	18.047846
1.507410	3.608877
1.507496	14.432742
1.507582	7.214988
1.507668	10.820406
1.507755	18.030552
1.507841	3.605419
1.507927	25.233089
1.508014	7.208071
1.508100	21.620062
1.508186	10.807957
1.508273	10.805882
1.508359	18.006346
1.508446	14.402310
1.508532	10.799658
1.508619	10.797584
1.508705	7.197006
1.508792	7.195623
1.508878	14.388481
1.508965	10.789287
1.509051	7.191475
1.509138	10.785138
1.509224	10.783064
1.509311	17.968317
1.509398	7.185944
1.509484	17.961405
1.509571	10.774769
1.509658	14.363593
1.509744	17.951036
1.509831	17.947580
1.509918	10.766475
1.510004	10.764401
1.510091	10.762328
1.510178	10.760255
1.510265	14.344242
1.510352	7.170739
1.510438	7.169357
1.510525	17.919937
1.510612	0.000000
1.510699	7.165212
1.510786	7.163830
1.510873	14.324896
1.510960	14.322133
1.511047	10.739527
1.511133	7.158303
1.511220	10.735383
1.511307	10.733311
1.511394	10.731238
1.511481	14.305555
1.511568	3.575698
1.511655	14.300031
1.511742	7.148634
1.511830	10.720880
1.511917	3.572936
1.512004	14.288982
1.512091	10.714665
1.512178	17.854324
1.512265	7.140349
1.512352	14.277936
1.512440	21.412762
1.512527	14.272413
1.512614	7.134826
1.512701	28.533783
1.512789	14.264132
1.512876	7.130685
1.512963	7.129305
1.513050	24.947737
1.513138	10.689817
1.513225	3.562582
1.513313	14.247570
1.513400	14.244810
1.513487	7.121025
1.513575	7.119646
1.513662	10.677399
1.513750	14.233773
1.513837	10.673261
1.513925	7.114128
1.514012	3.556374
1.514100	10.667053
1.514187	10.664985
1.514275	14.217221
1.514362	24.875311
1.514450	7.105853
1.514538	10.656711
1.514625	14.206190
1.514713	14.203433
1.514800	7.100338
1.514888	10.648438
1.514976	10.646371
1.515064	21.288607
1.515151	10.642236
1.515239	10.640169
1.515327	10.638102
1.515414	7.090690
1.515502	24.812592
1.515590	14.175868
1.515678	0.000000
1.515766	21.255535
1.515854	17.709503
1.515942	3.541212
1.516029	0.000000
1.516117	10.619503
1.516205	17.695728
1.516293	10.615372
1.516381	10.613306
1.516469	14.148321
1.516557	3.536392
1.516645	10.607110
1.516733	3.535015
1.516821	7.068654
1.516909	17.668194
1.516998	10.598851
1.517086	14.129049
1.517174	10.594723
1.517262	7.061773
1.517350	7.060397
1.517438	17.647552
1.517526	17.644114
1.517614	14.112539
1.517703	14.109788
1.517791	14.107038
1.517879	10.578215
1.517967	17.626921
1.518056	7.049393
1.518144	7.048018
1.518232	7.046643
1.518321	3.522634
1.518409	3.521947
1.518498	14.085038
1.518586	14.082290
1.518674	10.559656
1.518763	3.519198
1.518851	10.555533
1.518940	21.106945
1.519028	10.551412
1.519117	10.549351
1.519205	14.063054
1.519294	3.515077
1.519382	21.086340
1.519471	21.082222
1.519559	17.565084
1.519648	3.512331
1.519737	17.558220
1.519825	7.021915
1.519914	17.551357
1.520003	10.528755
1.520091	10.526697
1.520180	10.524638
1.520269	10.522580
1.520357	17.534204
1.520446	17.530773
1.520535	17.527346
1.520624	21.028700
1.520713	14.016390
1.520801	24.523882
1.520890	14.010904
1.520979	21.012243
1.521068	7.002710
1.521157	14.002679
1.521246	13.999938
1.521335	6.998599
1.521424	6.997228
1.521513	17.489645
1.521602	13.988976
1.521691	6.993118
1.521780	17.479370
1.521869	6.990378
1.521958	6.989009
1.522047	17.469099
1.522136	13.972541
1.522225	6.984901
1.522314	6.983532
1.522403	3.491082
1.522492	10.471192
1.522582	13.958853
1.522671	13.956116
1.522760	13.953380
1.522849	0.000000
1.522938	10.460931
1.523028	6.972586
1.523117	20.913656
1.523206	3.484926
1.523296	3.484242
1.523385	13.934235
1.523474	6.965750
1.523564	6.964384
1.523653	10.444525
1.523743	13.923301
1.523832	13.920568
1.523921	13.917836
1.524011	13.915104
1.524100	20.868559
1.524190	27.819283
1.524279	10.430183
1.524369	13.904181
1.524458	6.950725
1.524548	6.949360
1.524638	10.421993
1.524727	13.893261
1.524817	10.417899
1.524906	10.415854
1.524996	10.413807
1.525086	10.411761
1.525175	13.879621
1.525265	10.407670
1.525355	17.342709
1.525445	17.339300
1.525534	6.934358
1.525624	6.932995
1.525714	13.863264
1.525804	20.790810
1.525894	10.393361
1.525983	13.855091
1.526073	20.778551
1.526163	3.462411
1.526253	17.308651
1.526343	10.383148
1.526433	24.222584
1.526523	10.379066
1.526613	6.918016
1.526703	10.374984
1.526793	13.830591
1.526883	10.370903
1.526973	17.281439
1.527063	3.455608
1.527153	6.909856
1.527243	6.908497
1.527333	6.907138
1.527423	3.452889
1.527514	20.713261
1.527604	13.806123
1.527694	13.803407
1.527784	10.350517
1.527874	6.898987
1.527964	13.795259
1.528055	17.240681
1.528145	13.789829
1.528235	10.340337
1.528326	3.446100
1.528416	10.336267
1.528506	10.334231
1.528597	13.776263
1.528687	20.660328
1.528777	13.770840
1.528868	13.768128
1.528958	3.441355
1.529049	3.440677
1.529139	17.199997
1.529230	17.196611
1.529320	10.315935
1.529411	3.437968
1.529501	3.437291
1.529592	10.309842
1.529682	0.000000
1.529773	10.305782
1.529863	3.434584
1.529954	13.735631
1.530045	13.732925
1.530135	17.162777
1.530226	13.727517
1.530317	10.293610
1.530408	13.722110
1.530498	13.719407
1.530589	10.287529
1.530680	6.857001
1.530771	-3.427825
1.530861	10.281450
1.530952	10.279426
1.531043	6.851600
1.531134	10.275375
1.531225	13.695178
1.531316	6.847174
1.531407	20.536873
1.531497	13.689043
1.531589	6.848018
1.531680	20.511679
1.531770	10.267900
1.531861	6.853528
1.531953	20.507063
1.532043	6.860412
1.532134	17.053923
1.532226	10.193196
1.532317	27.210545
1.532408	17.018272
1.532499	10.216332
1.532590	23.731073
1.532681	10.202774
1.532772	13.628176
1.532864	20.375261
1.532955	6.808139
1.533046	3.512498
1.533137	10.243413
1.533229	16.950565
1.533320	16.837225
1.533411	20.153889
1.533503	10.361545
1.533594	6.914878
1.533685	13.558871
1.533777	17.171186
1.533868	13.373564
1.533959	16.825212
1.534051	13.327641
1.534142	10.873609
1.534234	4.168405
1.534325	3.737400
1.534417	13.224113
1.534508	16.979521
1.534600	10.539351
1.534691	7.354028
1.534783	19.154652
1.534875	13.780990
1.534966	9.872142
1.535058	8.691674
1.535149	16.102661
1.535241	15.605295
1.535333	16.934557
1.535425	13.840189
1.535516	17.444670
1.535608	6.110153
1.535700	5.914830
1.535792	16.907501
1.535883	10.901507
1.535975	15.243354
1.536067	10.968542
1.536159	15.430221
1.536251	10.158257
1.536343	13.974782
1.536434	16.867006
1.536526	15.996759
1.536618	1.801234
1.536710	16.848707
1.536802	13.083577
1.536894	6.531476
1.536986	13.041937
1.537078	8.701368
1.537170	6.499376
1.537262	9.438287
1.537354	8.922245
1.537447	11.598248
1.537539	11.647962
1.537631	9.155240
1.537723	13.152312
1.537815	7.867777
1.537907	11.312952
1.538000	12.785808
1.538092	15.152868
1.538184	16.025692
1.538276	5.087698
1.538369	8.638609
1.538461	15.853046
1.538553	12.629674
1.538646	10.109108
1.538738	18.655252
1.538830	4.263021
1.538923	14.650146
1.539015	12.492741
1.539108	14.639886
1.539200	14.430536
1.539292	8.817867
1.539385	6.189995
1.539477	17.148766
1.539570	10.469741
1.539662	15.500198
1.539755	13.052057
1.539848	17.487795
1.539940	9.758244
1.540033	5.025112
1.540125	-0.674900
1.540218	12.121604
1.540311	4.478343
1.540403	19.432495
1.540496	19.579838
1.540589	10.545329
1.540682	9.125351
1.540774	17.925997
1.540867	17.883898
1.540960	12.552115
1.541053	13.935965
1.541146	11.839458
1.541238	9.371482
1.541331	7.037657
1.541424	27.309526
1.541517	-3.885627
1.541610	5.852655
1.541703	26.587608
1.541796	6.851316
1.541889	2.132555
1.541982	11.601547
1.542075	8.781125
1.542168	7.579806
1.542261	11.528104
1.542354	4.215875
1.542447	5.740448
1.542540	20.556408
1.542633	20.593945
1.542727	14.924290
1.542820	10.685901
1.542913	15.017241
1.543006	14.408818
1.543099	13.849443
1.543192	6.861489
1.543286	-2.743851
1.543379	6.190540
1.543472	6.691877
1.543565	2.045697
1.543659	14.369543
1.543752	25.174419
1.543846	15.869376
1.543939	19.325270
1.544032	15.081920
1.544126	1.556676
1.544219	11.111113
1.544313	25.269848
1.544406	15.279550
1.544500	11.066199
1.544593	24.910032
1.544686	20.930786
1.544780	-3.885559
1.544874	16.517771
1.544967	5.741724
1.545061	20.832172
1.545154	11.190174
1.545248	5.886398
1.545342	-4.526176
1.545435	16.056065
1.545529	10.764345
1.545623	16.225668
1.545717	10.474891
1.545810	16.352768
1.545904	15.835579
1.545998	5.441968
1.546092	0.215999
1.546185	0.199357
1.546279	16.194490
1.546373	15.853708
1.546467	26.721088
1.546561	26.456068
1.546655	5.478364
1.546749	10.938187
1.546843	5.460305
1.546937	10.903978
1.547030	10.804545
1.547125	0.223081
1.547218	10.826696
1.547313	16.125807
1.547407	10.734098
1.547501	16.104704
1.547595	10.775282
1.547689	5.401098
1.547783	16.112196
1.547877	0.042187
1.547971	-5.320847
1.548065	5.378348
1.548160	5.376772
1.548254	26.858229
1.548348	21.483027
1.548442	21.488663
1.548537	16.112204
1.548631	10.740320
1.548725	21.475719
1.548820	5.368061
1.548898	16.101248
1.548990	0.000000
1.549083	10.730256
1.549175	10.728302
1.549267	5.363173
1.549360	10.724393
1.549452	0.000000
1.549545	5.360242
1.549637	10.718531
1.549729	16.074865
1.549822	26.786556
1.549914	16.069004
1.550007	16.066072
1.550099	10.708762
1.550192	5.353405
1.550284	5.352428
1.550377	16.054354
1.550469	-5.350475
1.550562	10.698997
1.550655	10.697044
1.550747	0.000000
1.550840	10.693139
1.550932	-5.345593
1.551025	0.000000
1.551118	10.687282
1.551210	0.000000
1.551303	21.366756
1.551396	5.340713
1.551489	16.019211
1.551581	-5.338761
1.551674	16.013357
1.551767	10.673619
1.551860	0.000000
1.551952	16.004576
1.552045	5.333883
1.552138	0.000000
1.552231	15.995795
1.552324	10.661912
1.552417	5.329981
1.552510	21.316021
1.552603	15.984090
1.552696	10.654109
1.552788	10.652159
1.552881	26.625521
1.552975	0.000000
1.553068	10.646308
1.553161	15.966537
1.553254	5.321204
1.553347	21.280916
1.553440	21.277016
1.553533	26.591394
1.553626	10.634608
1.553719	10.632659
1.553812	5.315354
1.553906	21.257519
1.553999	10.626810
1.554092	15.937291
1.554185	0.000000
1.554278	5.310481
1.554372	0.000000
1.554465	15.925595
1.554558	0.000000
1.554652	5.306583
1.554745	10.611217
1.554838	5.304634
1.554932	10.607319
1.555025	5.302685
1.555118	21.206844
1.555212	15.902210
1.555305	15.899287
1.555399	21.195152
1.555492	0.000000
1.555586	15.890519
1.555679	10.591731
1.555773	5.294892
1.555866	10.587835
1.555960	5.292943
1.556053	-5.291969
1.556147	26.454977
1.556241	10.580043
1.556334	26.445238
1.556428	-5.288074
1.556522	21.148399
1.556615	21.144505
1.556709	0.000000
1.556803	21.136713
1.556896	10.566409
1.556990	5.282231
1.557084	5.281257
1.557178	15.840850
1.557271	15.837929
1.557365	15.835009
1.557459	10.554725
1.557553	10.552777
1.557647	15.826245
1.557741	10.548883
1.557835	15.820404
1.557929	10.544990
1.558022	-5.271521
1.558116	10.541096
1.558210	10.539148
1.558304	10.537202
1.558398	5.267627
1.558492	5.266654
1.558586	10.531361
1.558681	5.264707
1.558775	5.263734
1.558869	10.525521
1.558963	21.047148
1.559057	21.043255
1.559151	5.259840
1.559245	5.258867
1.559340	10.515788
1.559434	21.027683
1.559528	21.023790
1.559622	10.509949
1.559716	10.508002
1.559811	21.012112
1.559905	5.252055
1.559999	5.251082
1.560093	31.500652
1.560188	10.498271
1.560282	15.744488
1.560377	0.000000
1.560471	0.000000
1.560565	5.245243
1.560660	10.488541
1.560754	5.243297
1.560849	10.484649
1.560943	20.965405
1.561038	-5.240378
1.561132	5.239405
1.561227	5.238432
1.561321	5.237459
1.561416	5.236486
1.561510	5.235513
1.561605	5.234540
1.561700	26.167837
1.561794	5.232594
1.561889	15.694865
1.561984	10.461298
1.562078	15.689028
1.562173	10.457406
1.562268	15.683190
1.562362	5.226758
1.562457	10.451569
1.562552	20.899246
1.562647	15.671516
1.562742	0.000000
1.562836	10.443787
1.562931	20.883682
1.563026	15.659842
1.563121	5.218975
1.563216	10.436004
1.563311	20.868116
1.563406	0.000000
1.563501	15.645251
1.563596	5.214111
1.563691	15.639415
1.563786	15.636497
1.563881	10.422385
1.563976	15.630660
1.564071	10.418494
1.564166	20.833097
1.564261	5.207302
1.564356	-5.206329
1.564451	10.410712
1.564546	10.408767
1.564642	5.203411
1.564737	0.000000
1.564832	0.000000
1.564927	10.400986
1.565022	15.598560
1.565118	20.794189
1.565213	0.000000
1.565308	15.589806
1.565403	25.978148
1.565499	10.389314
1.565594	5.193684
1.565690	10.385423
1.565785	5.191739
1.565880	10.381532
1.565976	5.189793
1.566071	5.188821
1.566167	5.187848
1.566262	0.000000
1.566358	10.371805
1.566453	5.184930
1.566549	5.183958
1.566644	5.182985
1.566740	10.364024
1.566835	20.724157
1.566931	15.540200
1.567027	10.358189
1.567122	15.534365
1.567218	5.177149
1.567314	-5.176176
1.567409	20.700813
1.567505	20.696924
1.567601	15.519774
1.567696	15.516857
1.567792	15.513939
1.567888	-5.170341
1.567984	0.000000
1.568079	10.336790
1.568175	10.334845
1.568271	-5.166450
1.568367	10.330955
1.568463	0.000000
1.568559	10.327064
1.568655	5.162559
1.568751	15.484759
1.568847	0.000000
1.568943	10.319283
1.569039	10.317337
1.569135	5.157696
1.569231	10.313447
1.569327	15.467252
1.569423	0.000000
1.569519	10.307611
1.569615	0.000000
1.569711	10.303720
1.569807	15.452662
1.569903	0.000000
1.570000	10.297885
1.570096	0.000000
1.570192	10.293994
1.570288	10.292048
1.570384	10.290103
1.570481	10.288158
1.570577	5.143106
1.570673	0.000000
1.570769	5.141161
1.570866	0.000000
1.570962	0.000000
1.571059	0.000000
1.571155	0.000000
1.571251	10.272595
1.571348	25.676626
1.571444	5.134353
1.571541	10.266760
1.571637	-5.132407
1.571734	0.000000
1.571830	5.130462
1.571927	5.129489
1.572023	5.128517
1.572120	0.000000
1.572217	0.000000
1.572313	5.125598
1.572410	0.000000
1.572506	20.494614
1.572603	0.000000
1.572700	15.365124
1.572796	15.362206
1.572893	15.359288
1.572990	10.237580
1.573087	5.117817
1.573183	10.233689
1.573280	15.347616
1.573377	10.229799
1.573474	10.227854
1.573571	0.000000
1.573668	0.000000
1.573764	20.444036
1.573861	25.550180
1.573958	5.109064
1.574055	5.108091
1.574152	15.321355
1.574249	15.318437
1.574346	15.315519
1.574443	-5.104200
1.574540	0.000000
1.574637	15.306766
1.574734	10.202565
1.574831	5.100310
1.574929	10.198674
1.575026	15.295094
1.575123	15.292175
1.575220	5.096419
1.575317	5.095447
1.575414	5.094474
1.575512	10.187003
1.575609	10.185058
1.575706	20.366224
1.575803	20.362335
1.575901	15.268833
1.575998	0.000000
1.576095	15.262998
1.576193	15.260079
1.576290	10.171441
1.576387	15.254244
1.576485	5.083776
1.576582	15.248408
1.576680	5.081830
1.576777	15.242573
1.576875	20.319540
1.576972	10.157825
1.577070	10.155880
1.577167	10.153934
1.577265	25.379974
1.577362	15.225067
1.577460	25.370249
1.577558	0.000000
1.577655	15.216314
1.577753	10.142264
1.577851	15.210479
1.577948	15.207561
1.578046	20.272858
1.578144	10.134484
1.578241	15.198809
1.578339	20.261189
1.578437	15.192974
1.578535	15.190057
1.578632	10.124760
1.578730	0.000000
1.578828	0.000000
1.578926	5.059463
1.579024	15.175469
1.579122	5.057518
1.579220	10.113091
1.579318	10.111145
1.579416	15.163801
1.579514	0.000000
1.579612	20.210623
1.579710	20.206732
1.579808	15.152132
1.579906	10.099477
1.580004	10.097532
1.580102	15.143381
1.580200	10.093643
1.580298	15.137547
1.580397	5.044877
1.580495	5.043904
1.580593	0.000000
1.580691	20.167839
1.580789	25.204939
1.580888	5.040016
1.580986	10.078087
1.581084	25.190355
1.581182	20.148396
1.581281	-5.036127
1.581379	15.105463
1.581478	10.068365
1.581576	5.033210
1.581674	5.032238
1.581773	10.062531
1.581871	20.121176
1.581969	5.029322
1.582068	10.056700
1.582167	5.027378
1.582265	5.026405
1.582363	20.101734
1.582462	10.048923
1.582561	5.023489
1.582659	10.045035
1.582758	0.000000
1.582857	15.061721
1.582955	0.000000
1.583054	20.074520
1.583153	15.052974
1.583251	5.016686
1.583350	20.062857
1.583449	15.044228
1.583548	25.068853
1.583646	10.025598
1.583745	15.035481
1.583844	25.054277
1.583943	20.039534
1.584042	5.008912
1.584141	15.023821
1.584239	5.006968
1.584338	10.011993
1.584437	10.010051
1.584536	25.020267
1.584635	20.012329
1.584734	20.008442
1.584833	5.001139
1.584932	5.000167
1.585031	4.999196
1.585130	4.998225
1.585230	19.989012
1.585329	19.985126
1.585428	9.990621
1.585527	9.988678
1.585626	14.980103
1.585725	24.961983
1.585824	14.974276
1.585924	24.952269
1.586023	9.978966
1.586122	9.977023
1.586221	4.987540
1.586321	9.973139
1.586420	4.985598
1.586519	29.907763
1.586619	4.983656
1.586718	9.965370
1.586818	4.981714
1.586917	4.980743
1.587016	4.979772
1.587116	4.978801
1.587215	4.977830
1.587315	-4.976860
1.587415	4.975889
1.587514	9.949836
1.587613	4.973947
1.587713	4.972977
1.587813	9.944012
1.587912	4.971035
1.588012	19.880259
1.588112	9.938189
1.588211	19.872494
1.588311	9.934306
1.588411	19.864731
1.588510	19.860849
1.588610	9.928484
1.588710	4.963272
1.588810	14.886904
1.588910	9.922662
1.589009	0.000000
1.589109	19.837563
1.589209	9.916842
1.589309	9.914901
1.589409	19.825922
1.589509	19.822042
1.589609	9.909081
1.589709	19.814281
1.589809	24.763002
1.589909	14.854893
1.590009	19.802645
1.590109	19.798765
1.590209	4.948721
1.590309	4.947752
1.590409	4.946782
1.590509	-9.891625
1.590609	9.889687
1.590709	4.943873
1.590810	9.885808
1.590910	9.883869
1.591010	14.822896
1.591110	14.819988
1.591210	9.878054
1.591311	9.876116
1.591411	4.937088
1.591511	14.808358
1.591612	9.870301
1.591712	19.736725
1.591812	4.933212
1.591913	14.796731
1.592013	9.862550
1.592114	-4.930306
1.592214	9.858674
1.592315	14.785106
1.592415	19.709600
1.592516	14.779294
1.592616	0.000000
1.592717	9.848989
1.592817	14.770577
1.592918	19.690229
1.593019	4.921589
1.593119	9.841242
1.593220	24.598265
1.593321	9.837370
1.593421	9.835433
1.593522	4.916749
1.593623	0.000000
1.593724	4.914813
1.593824	24.569225
1.593925	19.651508
1.594026	9.823819
1.594127	-4.910942
1.594228	14.729923
1.594328	14.727020
1.594429	14.724118
1.594530	9.814144
1.594631	24.530523
1.594732	14.715412
1.594833	0.000000
1.594934	14.709610
1.595035	-4.902236
1.595136	4.901269
1.595237	4.900302
1.595338	4.899335
1.595439	14.695107
1.595540	14.692206
1.595642	4.896435
1.595743	9.790937
1.595844	9.789004
1.595945	0.000000
1.596046	14.677709
1.596148	4.891603
1.596249	14.671911
1.596350	9.779342
1.596451	4.888705
1.596553	19.550955
1.596654	19.547092
1.596755	19.543228
1.596857	19.539366
1.596958	19.535503
1.597060	4.882910
1.597161	9.763889
1.597262	14.642938
1.597364	14.640041
1.597466	14.637146
1.597567	4.878084
1.597669	19.508474
1.597770	4.876153
1.597872	0.000000
1.597973	9.748447
1.598075	4.873259
1.598176	-4.872294
1.598278	4.871329
1.598380	-4.870365
1.598481	4.869401
1.598583	4.868436
1.598685	14.602416
1.598787	14.599524
1.598888	9.731088
1.598990	9.729159
1.599092	0.000000
1.599194	4.862652
1.599296	9.723376
1.599398	-4.860724
1.599499	14.579283
1.599601	19.435190
1.599703	0.000000
1.599805	4.856871
1.599907	19.423632
1.600009	0.000000
1.600111	19.415928
1.600213	9.706038
1.600315	-9.704112
1.600417	24.255466
1.600520	14.550392
1.600622	4.849168
1.600724	9.696412
1.600826	19.388975
1.600928	24.231407
1.601030	0.000000
1.601133	9.688715
1.601235	4.843396
1.601337	9.684868
1.601439	9.682944
1.601542	19.362041
1.601644	19.358196
1.601746	29.031527
1.601849	24.188133
1.601951	9.673330
1.602054	14.507113
1.602156	24.173717
1.602258	9.667565
1.602361	14.498466
1.602463	14.495584
1.602566	4.830901
1.602668	4.829940
1.602771	0.000000
1.602873	4.828020
1.602976	9.654119
1.603079	9.652200
1.603181	14.475421
1.603284	4.824181
1.603387	14.469663
1.603489	24.111307
1.603592	14.463906
1.603695	14.461029
1.603797	24.096920
1.603900	4.818425
1.604003	14.452398
1.604106	9.633015
1.604209	14.446646
1.604312	4.814590
1.604414	-4.813632
1.604517	9.625347
1.604620	4.811716
1.604723	4.810758
1.604826	4.809800
1.604929	28.853050
1.605032	9.615768
1.605135	9.613853
1.605238	14.417908
1.605341	9.610024
1.605444	9.608110
1.605547	19.212393
1.605651	4.802141
1.605754	4.801185
1.605857	0.000000
1.605960	4.799272
1.606063	9.596630
1.606166	0.000000
1.606270	9.592806
1.606373	0.000000
1.606476	9.588983
1.606579	9.587071
1.606683	14.377741
1.606786	14.374875
1.606890	14.372009
1.606993	4.789715
1.607096	4.788760
1.607200	14.363415
1.607303	4.786850
1.607407	9.571792
1.607510	9.569883
1.607614	14.351962
1.607717	9.566067
1.607821	9.564158
1.607924	4.781126
1.608028	0.000000
1.608131	4.779219
1.608235	9.556531
1.608339	19.109249
1.608443	4.776359
1.608546	14.326219
1.608650	14.323360
1.608754	19.094004
1.608857	9.545097
1.608961	4.771596
1.609065	9.541288
1.609169	23.848461
1.609273	9.537481
1.609377	4.767789
1.609480	9.533675
1.609584	9.531773
1.609688	9.529870
1.609792	0.000000
1.609896	9.526067
1.610000	0.000000
1.610104	4.761132
1.610208	14.280545
1.610312	19.036926
1.610416	9.516563
1.610520	9.514664
1.610624	9.514414
1.610729	0.000421
1.610833	9.508448
1.610937	14.259470
1.611041	9.505296
1.611145	9.506950
1.611250	9.486504
1.611354	18.992805
1.611458	23.708668
1.611562	28.442307
1.611667	9.494617
1.611771	-4.710859
1.611875	14.215435
1.611980	19.004444
1.612084	18.946108
1.612189	4.743139
1.612293	9.445115
1.612398	4.696442
1.612502	4.791854
1.612607	4.854977
1.612711	9.542855
1.612816	28.073000
1.612920	4.579002
1.613025	4.649448
1.613129	4.929168
1.613234	13.995913
1.613339	5.081069
1.613443	9.217552
1.613548	13.792020
1.613653	9.614028
1.613757	-3.934217
1.613862	0.344268
1.613967	14.008951
1.614072	9.262831
1.614177	-3.878025
1.614281	9.231639
1.614386	4.242486
1.614491	5.507338
1.614596	-7.246574
1.614701	13.596381
1.614806	13.558978
1.614911	22.643978
1.615016	10.853136
1.615121	5.466456
1.615226	-3.944275
1.615331	4.725706
1.615436	13.306925
1.615541	23.168072
1.615646	18.899563
1.615752	4.724663
1.615857	4.193494
1.615962	6.394971
1.616067	14.172348
1.616172	0.611029
1.616277	8.808498
1.616383	10.115749
1.616488	8.749488
1.616593	9.447329
1.616699	8.687607
1.616804	18.102884
1.616909	16.421234
1.617015	15.887222
1.617120	9.447590
1.617226	1.854746
1.617331	13.208863
1.617437	2.724762
1.617542	13.135992
1.617647	10.523938
1.617753	20.282679
1.617859	13.021809
1.617964	3.579277
1.618070	10.474871
1.618175	12.902029
1.618281	14.178226
1.618387	18.905638
1.618492	11.373743
1.618598	6.559972
1.618704	4.727252
1.618810	20.565649
1.618915	4.745450
1.619021	7.984160
1.619127	12.512538
1.619233	15.040786
1.619339	10.652431
1.619444	7.644380
1.619550	16.196346
1.619656	12.281211
1.619762	21.697863
1.619868	10.175688
1.619974	10.691349
1.620080	7.357418
1.620186	11.627686
1.620292	0.632128
1.620398	2.475950
1.620504	16.399885
1.620610	11.849716
1.620717	9.474005
1.620823	4.555452
1.620929	12.268065
1.621035	12.037498
1.621141	13.737531
1.621248	5.319342
1.621354	19.639986
1.621460	14.223181
1.621566	10.357160
1.621673	8.513307
1.621779	7.647911
1.621885	17.183226
1.621992	9.487627
1.622098	14.575631
1.622205	15.681127
1.622311	11.093766
1.622417	12.606586
1.622524	11.214280
1.622630	4.403180
1.622737	11.394355
1.622843	13.470034
1.622950	16.317848
1.623057	18.993862
1.623163	21.237907
1.623270	4.848313
1.623376	5.984163
1.623483	4.749876
1.623590	19.379721
1.623697	19.001862
1.623803	6.784164
1.623910	5.730027
1.624017	21.865484
1.624124	2.934715
1.624231	11.248166
1.624337	1.678391
1.624444	1.611852
1.624551	16.684772
1.624658	8.019352
1.624765	10.213477
1.624872	17.644865
1.624979	6.053445
1.625086	14.876664
1.625193	4.751428
1.625300	17.303911
1.625407	8.961822
1.625514	26.446728
1.625621	10.972883
1.625728	5.217029
1.625835	9.058933
1.625943	19.842392
1.626050	5.148424
1.626157	18.623941
1.626264	14.606058
1.626371	22.739004
1.626479	8.864117
1.626586	5.047946
1.626693	18.994940
1.626801	13.981123
1.626908	0.247596
1.627015	17.831453
1.627123	4.747215
1.627230	13.836094
1.627338	18.044243
1.627445	18.633667
1.627553	9.166377
1.627660	0.150071
1.627768	9.904273
1.627875	9.487679
1.627983	9.486575
1.628090	18.970881
1.628198	13.933242
1.628306	14.402278
1.628413	0.321781
1.628521	0.145091
1.628629	0.195368
1.628736	9.477980
1.628844	4.738317
1.628952	18.904922
1.629060	14.330714
1.629167	14.206054
1.629275	14.203876
1.629383	-9.391074
1.629491	9.466275
1.629599	14.161285
1.629707	14.209464
1.629815	9.449895
1.629923	4.766750
1.630031	4.750084
1.630139	14.180161
1.630247	9.455161
1.630355	0.006598
1.630463	14.175260
1.630571	23.624712
1.630679	18.896622
1.630787	18.896772
1.630805	4.723319
1.630911	0.000000
1.631017	0.000000
1.631123	9.441396
1.631229	14.159472
1.631335	14.156852
1.631441	4.718077
1.631547	14.151610
1.631653	14.148991
1.631759	14.146370
1.631865	4.714583
1.631971	9.427420
1.632077	0.000000
1.632183	0.000000
1.632290	9.422181
1.632396	0.000000
1.632502	9.418689
1.632608	9.416943
1.632715	14.122795
1.632821	4.706725
1.632927	4.705853
1.633033	14.114939
1.633140	14.112320
1.633246	9.406468
1.633353	14.107083
1.633459	4.701488
1.633565	18.802464
1.633672	14.099230
1.633778	9.397741
1.633885	9.395996
1.633991	4.697126
1.634098	9.392507
1.634204	9.390761
1.634311	4.694509
1.634417	4.693636
1.634524	9.385528
1.634630	9.383783
1.634737	0.000000
1.634844	4.690147
1.634950	4.689275
1.635057	0.000000
1.635164	9.375062
1.635270	9.373318
1.635377	4.685787
1.635484	9.369830
1.635591	4.684043
1.635698	18.732683
1.635804	4.682299
1.635911	9.362855
1.636018	18.722221
1.636125	9.359367
1.636232	4.678812
1.636339	0.000000
1.636446	9.354137
1.636553	-4.676197
1.636660	0.000000
1.636767	4.674454
1.636874	4.673582
1.636981	4.672710
1.637088	-4.671839
1.637195	18.683870
1.637302	9.340192
1.637409	0.000000
1.637516	0.000000
1.637624	4.667481
1.637731	9.333220
1.637838	4.665739
1.637945	0.000000
1.638052	4.663996
1.638160	4.663125
1.638267	9.324508
1.638374	9.322765
1.638481	13.981534
1.638589	4.659640
1.638696	4.658769
1.638804	13.973694
1.638911	9.314054
1.639019	0.000000
1.639126	9.310569
1.639233	13.963241
1.639341	0.000000
1.639448	13.958014
1.639556	9.303601
1.639663	9.301859
1.639771	4.650058
1.639879	9.298375
1.639986	0.000000
1.640094	9.294891
1.640201	-4.646575
1.640309	0.000000
1.640417	0.000000
1.640525	9.287925
1.640632	9.286182
1.640740	4.642220
1.640848	13.924049
1.640956	13.921437
1.641063	-4.639608
1.641171	4.638738
1.641279	18.551468
1.641387	4.636996
1.641495	13.908376
1.641603	9.270510
1.641711	13.903152
1.641819	13.900540
1.641927	9.265285
1.642035	18.527088
1.642143	9.261803
1.642251	9.260061
1.642359	13.887481
1.642467	0.000000
1.642575	13.882257
1.642683	4.626548
1.642791	18.502712
1.642899	-4.624807
1.643007	9.247873
1.643116	4.623066
1.643224	9.244391
1.643332	18.485300
1.643440	9.240910
1.643549	9.239168
1.643657	18.474855
1.643765	9.235686
1.643874	9.233946
1.643982	9.232204
1.644090	9.230464
1.644199	9.228723
1.644307	36.907928
1.644416	0.000000
1.644524	0.000000
1.644632	4.610880
1.644741	9.220018
1.644850	18.436556
1.644958	18.433075
1.645067	9.214796
1.645175	9.213056
1.645284	4.605658
1.645392	9.209574
1.645501	13.811749
1.645610	4.603046
1.645718	9.204351
1.645827	13.803917
1.645936	18.401741
1.646045	4.599565
1.646153	-4.598694
1.646262	9.195648
1.646371	13.790861
1.646480	9.192167
1.646589	9.190427
1.646697	4.594343
1.646806	13.780417
1.646915	22.963011
1.647024	9.183464
1.647133	9.181724
1.647242	-13.769974
1.647351	9.178242
1.647460	9.176501
1.647569	4.587380
1.647678	4.586510
1.647787	0.000000
1.647897	13.754309
1.648006	9.167798
1.648115	13.749086
1.648224	9.164317
1.648333	32.069019
1.648442	22.902090
1.648552	13.738643
1.648661	13.736032
1.648770	4.577807
1.648879	4.576937
1.648989	0.000000
1.649098	9.150393
1.649207	9.148652
1.649317	9.146911
1.649426	9.145170
1.649535	13.715145
1.649645	9.141689
1.649754	27.419846
1.649864	9.138208
1.649973	13.704701
1.650083	0.000000
1.650192	0.000000
1.650302	13.696868
1.650411	13.694258
1.650521	-9.127765
1.650631	0.000000
1.650740	9.124283
1.650850	9.122542
1.650960	-9.120802
1.651069	-4.559531
1.651179	13.675981
1.651289	4.557790
1.651399	18.227678
1.651508	13.668148
1.651618	-4.555179
1.651728	0.000000
1.651838	9.106876
1.651948	4.552568
1.652058	13.655092
1.652168	13.652481
1.652277	22.749784
1.652387	4.549087
1.652497	18.192865
1.652607	0.000000
1.652717	13.639426
1.652828	9.091210
1.652938	18.178938
1.653048	9.087729
1.653158	9.085988
1.653268	13.626370
1.653378	0.000000
1.653488	13.621148
1.653598	0.000000
1.653709	4.538642
1.653819	-4.537772
1.653929	9.073802
1.654039	9.072062
1.654150	9.070321
1.654260	13.602870
1.654370	-4.533420
1.654481	13.597648
1.654591	0.000000
1.654701	9.061617
1.654812	9.059875
1.654922	13.587202
1.655033	9.056394
1.655143	4.527327
1.655254	4.526456
1.655364	4.525586
1.655475	9.049430
1.655585	9.047689
1.655696	13.568923
1.655806	4.522104
1.655917	18.084932
1.656028	9.040726
1.656138	-4.519492
1.656249	0.000000
1.656360	4.517751
1.656471	9.033762
1.656581	0.000000
1.656692	9.030280
1.656803	-4.514269
1.656914	9.026797
1.657025	0.000000
1.657135	27.069946
1.657246	22.553936
1.657357	9.019834
1.657468	18.036184
1.657579	13.524527
1.657690	18.029221
1.657801	4.506434
1.657912	-4.505564
1.658023	27.028162
1.658134	9.007646
1.658245	4.502953
1.658356	13.506246
1.658468	13.503634
1.658579	4.500341
1.658690	4.499470
1.658801	13.495799
1.658912	13.493187
1.659023	22.484293
1.659135	8.991976
1.659246	8.990234
1.659357	8.988494
1.659469	4.493376
1.659580	4.492506
1.659691	4.491635
1.659803	13.472293
1.659914	4.489894
1.660025	8.978046
1.660137	4.488153
1.660248	22.436411
1.660360	8.972823
1.660471	4.485541
1.660583	4.484670
1.660695	17.935198
1.660806	0.000000
1.660918	-4.482059
1.661029	4.481188
1.661141	8.960634
1.661253	22.397232
1.661364	13.435728
1.661476	13.433116
1.661588	17.907339
1.661700	8.951928
1.661811	0.000000
1.661923	4.474223
1.662035	26.840113
1.662147	8.944963
1.662259	8.943222
1.662370	4.470740
1.662482	4.469870
1.662594	8.937999
1.662706	17.872515
1.662818	4.467258
1.662930	8.932775
1.663042	-4.465517
1.663154	8.929292
1.663266	17.855103
1.663378	0.000000
1.663490	17.848137
1.663602	13.383491
1.663715	8.920586
1.663827	13.378267
1.663939	8.917104
1.664051	4.457681
1.664163	22.284054
1.664276	22.279699
1.664388	13.365209
1.664500	0.000000
1.664613	13.359984
1.664725	0.000000
1.664837	13.354761
1.664950	4.450716
1.665062	13.349538
1.665175	4.448975
1.665287	0.000000
1.665399	13.341702
1.665512	8.892727
1.665624	13.336479
1.665737	8.889245
1.665850	13.331256
1.665962	8.885763
1.666075	13.326033
1.666187	22.205702
1.666300	4.440270
1.666413	13.318198
1.666525	17.754114
1.666638	8.875317
1.666751	13.310363
1.666864	4.435917
1.666976	8.870093
1.667089	13.302528
1.667202	13.299917
1.667315	8.864871
1.667428	8.863130
1.667541	4.430695
1.667654	13.289472
1.667767	17.715815
1.667879	13.284249
1.667992	8.854425
1.668105	8.852684
1.668218	22.127359
1.668332	13.273805
1.668445	0.000000
1.668558	4.422861
1.668671	13.265971
1.668784	13.263360
1.668897	26.521498
1.669010	17.677517
1.669124	22.092545
1.669237	13.252916
1.669350	13.250305
1.669463	13.247694
1.669577	13.245083
1.669690	4.414157
1.669803	22.066437
1.669917	8.824834
1.670030	8.823093
1.670143	4.410676
1.670257	4.409806
1.670370	4.408936
1.670484	22.040331
1.670597	8.814392
1.670711	22.031628
1.670824	8.810911
1.670938	13.213757
1.671051	4.403715
1.671165	8.805691
1.671279	22.009876
1.671392	8.802210
1.671506	4.400235
1.671620	8.798730
1.671733	13.195485
1.671847	8.795250
1.671961	8.793510
1.672075	8.791770
1.672188	17.580061
1.672302	0.000000
1.672416	13.179827
1.672530	8.784811
1.672644	4.391536
1.672758	8.781332
1.672872	4.389796
1.672986	4.388926
1.673100	17.552225
1.673214	26.323120
1.673328	8.772634
1.673442	8.770894
1.673556	13.153732
1.673670	8.767416
1.673784	17.531353
1.673898	4.381968
1.674012	8.762198
1.674127	0.000000
1.674241	17.517439
1.674355	21.892452
1.674469	13.132862
1.674584	21.883757
1.674698	-4.375882
1.674812	8.750025
1.674927	4.374143
1.675041	8.746548
1.675155	4.372404
1.675270	17.486139
1.675384	4.370666
1.675499	4.369796
1.675613	8.737854
1.675728	13.104174
1.675842	0.000000
1.675957	8.732639
1.676071	4.365450
1.676186	21.822906
1.676301	21.818562
1.676415	0.000000
1.676530	13.085922
1.676645	8.722211
1.676759	13.080709
1.676874	17.437469
1.676989	13.075496
1.677104	17.430519
1.677218	4.356761
1.677333	4.355892
1.677448	8.710047
1.677563	8.708309
1.677678	8.706572
1.677793	17.409668
1.677908	17.406195
1.678023	13.052040
1.678138	13.049435
1.678253	17.395771
1.678368	8.696149
1.678483	8.694412
1.678598	0.000000
1.678713	8.690938
1.678828	4.344601
1.678943	4.343732
1.679059	8.685729
1.679174	8.683992
1.679289	17.364511
1.679404	21.701300
1.679519	13.018175
1.679635	8.677048
1.679750	13.012967
1.679865	4.336788
1.679981	13.007759
1.680096	13.005156
1.680211	8.668368
1.680327	17.333265
1.680442	8.664897
1.680558	12.994742
1.680673	4.330713
1.680789	0.000000
1.680904	17.315912
1.681020	12.984331
1.681136	8.654486
1.681251	4.326375
1.681367	4.325508
1.681483	25.947844
1.681598	17.295094
1.681714	8.645812
1.681830	12.966117
1.681945	8.642344
1.682061	17.281219
1.682177	12.958313
1.682293	0.000000
1.682409	12.953111
1.682525	21.584185
1.682640	8.631940
1.682756	8.630206
1.682872	21.571182
1.682988	17.253479
1.683104	12.937510
1.683220	21.558182
1.683336	0.000000
1.683452	8.619807
1.683568	4.309037
1.683684	12.924512
1.683801	8.614609
1.683917	8.612876
1.684033	12.916716
1.684149	12.914118
1.684265	8.607679
1.684381	12.908921
1.684498	12.906323
1.684614	12.903726
1.684730	17.201504
1.684847	0.000000
1.684963	8.597289
1.685080	8.595558
1.685196	17.187653
1.685312	8.592095
1.685429	-4.295182
1.685545	8.588634
1.685662	4.293452
1.685778	8.585173
1.685895	0.000000
1.686011	4.290856
1.686128	21.449955
1.686245	17.156504
1.686361	4.288261
1.686478	21.436981
1.686595	12.859593
1.686711	8.571333
1.686828	4.284802
1.686945	4.283937
1.687062	12.849218
1.687178	4.282208
1.687295	17.125376
1.687412	8.560959
1.687529	0.000000
1.687646	17.115005
1.687763	8.555774
1.687880	17.108091
1.687997	12.828477
1.688114	12.825886
1.688231	8.548862
1.688348	-4.273568
1.688465	12.818112
1.688582	4.271841
1.688699	4.270977
1.688816	4.270113
1.688933	8.538501
1.689051	8.536774
1.689168	12.802571
1.689285	4.266661
1.689402	8.531595
1.689520	4.264935
1.689637	8.528144
1.689754	0.000000
1.689871	4.262346
1.689989	17.045935
1.690106	8.521242
1.690224	17.039036
1.690341	21.294481
1.690459	0.000000
1.690576	12.771516
1.690694	17.025240
1.690811	4.255448
1.690929	8.509171
1.691046	8.507448
1.691164	8.505725
1.691282	12.756002
1.691399	8.502278
1.691517	17.001110
1.691635	4.249416
1.691752	12.745665
1.691870	4.247694
1.691988	8.493666
1.692106	8.491943
1.692224	12.735332
1.692341	12.732750
1.692459	12.730167
1.692577	8.485057
1.692695	0.000000
1.692813	-4.240808
1.692931	0.000000
1.693049	12.717261
1.693167	12.714681
1.693285	4.237367
1.693403	4.236507
1.693521	8.471294
1.693639	8.469575
1.693757	16.935711
1.693876	4.233068
1.693994	8.464417
1.694112	8.462699
1.694230	4.230490
1.694348	16.918524
1.694467	8.457543
1.694585	8.455826
1.694703	12.681163
1.694822	21.130978
1.694940	16.901348
1.695058	16.897913
1.695177	12.670860
1.695295	12.668285
1.695414	12.665710
1.695532	12.663136
1.695651	4.220188
1.695769	4.219330
1.695888	16.873888
1.696007	16.870459
1.696125	12.650270
1.696244	12.647698
1.696362	8.430084
1.696481	16.856741
1.696600	16.853313
1.696719	8.424942
1.696838	8.423229
1.696956	8.421515
1.697075	4.209901
1.697194	12.627134
1.697313	12.624565
1.697432	12.621997
1.697551	8.412952
1.697670	16.822481
1.697788	8.409529
1.697907	8.407818
1.698026	12.609159
1.698146	21.010988
1.698265	8.402685
1.698384	12.601461
1.698503	12.598896
1.698622	12.596332
1.698741	8.395844
1.698860	12.591203
1.698979	8.392426
1.699099	16.781435
1.699218	0.000000
1.699337	8.387300
1.699456	-8.385592
1.699576	8.383884
1.699695	16.764353
1.699814	8.380469
1.699934	8.378762
1.700053	12.565584
1.700173	12.563025
1.700292	8.373643
1.700412	0.000000
1.700531	0.000000
1.700651	8.368526
1.700770	4.183411
1.700890	8.365116
1.701010	12.545117
1.701129	12.542562
1.701249	16.720007
1.701369	8.358300
1.701488	4.178298
1.701608	16.709787
1.701728	4.176595
1.701848	16.702976
1.701967	4.174907
1.702087	8.347275
1.702207	4.174448
1.702327	4.174641
1.702447	16.674765
1.702567	12.494863
1.702687	20.833700
1.702807	8.331536
1.702927	20.814529
1.703047	4.169127
1.703167	4.185789
1.703287	8.357232
1.703407	4.192438
1.703527	8.392788
1.703647	0.166441
1.703767	4.243929
1.703888	4.036064
1.704008	4.068057
1.704128	4.334582
1.704248	12.501648
1.704369	12.641308
1.704489	0.077252
1.704609	12.076675
1.704730	0.469394
1.704850	20.430597
1.704970	16.450682
1.705091	12.508279
1.705211	16.280684
1.705332	16.249958
1.705452	16.529745
1.705573	4.508557
1.705693	23.952957
1.705814	4.368449
1.705935	16.075613
1.706055	8.352571
1.706176	4.415521
1.706297	8.865277
1.706417	8.900955
1.706538	0.862269
1.706659	7.450864
1.706780	0.970760
1.706900	13.245135
1.707021	-0.362443
1.707142	11.422410
1.707263	16.365557
1.707384	11.731741
1.707505	20.086777
1.707626	11.653629
1.707747	1.487517
1.707868	12.091495
1.707989	12.073872
1.708110	14.548167
1.708231	4.811546
1.708352	18.567450
1.708473	-0.284814
1.708595	9.812252
1.708716	5.654173
1.708837	11.192605
1.708958	9.239782
1.709080	14.511657
1.709201	6.792456
1.709322	12.726970
1.709443	4.246183
1.709565	2.358500
1.709686	12.107905
1.709808	11.756631
1.709929	12.787872
1.710050	14.003752
1.710172	12.814290
1.710293	2.344435
1.710415	11.629479
1.710536	11.602870
1.710658	7.285738
1.710780	14.506986
1.710901	13.062368
1.711023	14.375421
1.711145	14.308401
1.711266	7.120298
1.711388	11.406769
1.711510	11.853880
1.711632	8.663065
1.711753	15.655141
1.711875	19.973194
1.711997	14.831244
1.712119	10.541846
1.712241	13.674086
1.712363	14.520898
1.712485	11.548672
1.712607	8.753749
1.712729	6.689429
1.712851	11.317653
1.712973	0.046353
1.713095	8.753643
1.713217	13.078531
1.713339	17.647470
1.713461	4.092494
1.713583	19.279348
1.713706	11.841113
1.713828	8.871209
1.713950	11.931209
1.714072	8.894823
1.714195	13.359851
1.714317	14.350007
1.714439	14.458622
1.714562	12.257711
1.714684	16.289902
1.714807	13.446477
1.714929	19.483700
1.715052	10.478032
1.715174	2.900675
1.715297	11.828530
1.715419	10.389440
1.715542	16.205761
1.715664	12.918492
1.715787	11.072855
1.715909	6.633939
1.716032	13.439096
1.716155	6.818651
1.716278	5.647967
1.716400	15.003979
1.716523	12.635293
1.716646	13.261769
1.716769	9.128863
1.716892	14.565739
1.717015	0.000000
1.717137	2.585328
1.717260	3.319597
1.717383	2.988298
1.717506	3.821485
1.717629	-0.738163
1.717752	9.194282
1.717875	13.122004
1.717998	11.855747
1.718122	5.232833
1.718245	9.222050
1.718368	13.842698
1.718491	14.399390
1.718614	16.390057
1.718737	1.995677
1.718861	0.951376
1.718984	0.906242
1.719107	18.093870
1.719231	4.223783
1.719354	13.129632
1.719477	9.275174
1.719601	11.029991
1.719724	22.877686
1.719848	9.287579
1.719971	23.228302
1.720095	13.942305
1.720218	14.473125
1.720342	18.850071
1.720465	9.536622
1.720589	13.743013
1.720712	22.255100
1.720836	0.571687
1.720960	18.273516
1.721083	13.974973
1.721207	23.142620
1.721331	13.837876
1.721455	0.527963
1.721578	4.539893
1.721702	27.413471
1.721826	5.177640
1.721950	9.326869
1.722074	9.413667
1.722198	9.484686
1.722322	4.664502
1.722446	0.127601
1.722570	18.602217
1.722694	4.767264
1.722818	23.188616
1.722942	9.329889
1.723066	13.889084
1.723190	9.451670
1.723314	-9.144489
1.723439	13.992624
1.723563	-4.531200
1.723687	18.591002
1.723811	-9.313279
1.723935	9.314885
1.724060	9.324162
1.724184	9.335250
1.724308	13.982677
1.724433	9.329623
1.724557	9.319052
1.724682	18.634043
1.724806	0.000946
1.724931	23.285368
1.725055	13.968911
1.725131	4.655421
1.725253	-4.654539
1.725375	4.653657
1.725497	9.305549
1.725620	4.651893
1.725742	4.651011
1.725864	13.950385
1.725986	13.947739
1.726109	9.296729
1.726231	13.942448
1.726353	9.293201
1.726476	4.645719
1.726598	9.289674
1.726721	9.287910
1.726843	9.286147
1.726966	13.926577
1.727088	18.565243
1.727211	9.280858
1.727333	4.639547
1.727456	13.915998
1.727579	4.637784
1.727701	9.273807
1.727824	13.908066
1.727947	9.270281
1.728069	9.268518
1.728192	13.900134
1.728315	18.529987
1.728437	9.263231
1.728560	13.892204
1.728683	9.259707
1.728806	13.886918
1.728929	18.512367
1.729052	-4.627211
1.729174	-4.626330
1.729297	9.250897
1.729420	4.624568
1.729543	13.871061
1.729666	9.245613
1.729789	9.243852
1.729912	4.621045
1.730035	9.240329
1.730159	9.238567
1.730282	4.618403
1.730405	0.000000
1.730528	9.233284
1.730651	4.615761
1.730774	13.844643
1.730898	13.842001
1.731021	9.226240
1.731144	9.224479
1.731268	4.611359
1.731391	13.831436
1.731514	18.438395
1.731638	27.652309
1.731761	18.431353
1.731884	13.820873
1.732008	9.212155
1.732131	9.210395
1.732255	0.000000
1.732378	4.603437
1.732502	4.602557
1.732625	4.601677
1.732749	23.003984
1.732873	0.000000
1.732996	4.599037
1.733120	13.794470
1.733244	4.597277
1.733367	9.192794
1.733491	13.786551
1.733615	9.189274
1.733739	18.375029
1.733862	13.778632
1.733986	4.591998
1.734110	13.773353
1.734234	13.770714
1.734358	0.000000
1.734482	4.588478
1.734606	9.175197
1.734730	4.586719
1.734854	9.171679
1.734978	0.000000
1.735102	4.584080
1.735226	9.166400
1.735350	9.164641
1.735474	9.162882
1.735598	18.322245
1.735722	4.579682
1.735847	9.157604
1.735971	9.155845
1.736095	13.731129
1.736219	18.304653
1.736344	9.150568
1.736468	9.148809
1.736592	9.147050
1.736717	9.145291
1.736841	0.000000
1.736965	9.141773
1.737090	18.280029
1.737214	0.000000
1.737339	4.568248
1.737463	13.702107
1.737588	-4.566490
1.737712	13.696831
1.737837	9.129462
1.737961	0.000000
1.738086	18.251890
1.738211	22.810465
1.738335	9.122427
1.738460	18.241337
1.738585	13.678366
1.738709	9.117151
1.738834	18.230787
1.738959	13.670452
1.739084	9.111876
1.739209	18.220236
1.739333	4.554180
1.739458	4.553300
1.739583	0.000000
1.739708	0.000000
1.739833	13.651988
1.739958	9.099567
1.740083	4.548904
1.740208	27.288151
1.740333	13.641438
1.740458	18.185068
1.740583	4.545388
1.740708	13.633526
1.740834	-4.543630
1.740959	13.628251
1.741084	9.083742
1.741209	13.622976
1.741334	18.160452
1.741460	-4.539234
1.741585	4.538355
1.741710	-4.537476
1.741836	13.609789
1.741961	9.071435
1.742086	9.069676
1.742212	0.000000
1.742337	0.000000
1.742463	13.596602
1.742588	9.062644
1.742714	9.060885
1.742839	0.000000
1.742965	-4.528685
1.743090	4.527805
1.743216	13.580779
1.743342	13.578142
1.743467	22.625841
1.743593	4.524289
1.743719	9.046821
1.743844	13.567594
1.743970	18.086609
1.744096	13.562319
1.744222	9.039788
1.744347	18.076059
1.744473	4.518136
1.744599	0.000000
1.744725	13.549133
1.744851	9.030997
1.744977	9.029239
1.745103	18.054962
1.745229	18.051445
1.745355	4.511982
1.745481	4.511103
1.745607	18.040897
1.745733	-4.509345
1.745859	4.508466
1.745986	4.507587
1.746112	9.013416
1.746238	9.011658
1.746364	-4.504950
1.746490	9.008142
1.746617	18.012768
1.746743	9.004625
1.746869	0.000000
1.746995	22.502773
1.747122	8.999351
1.747248	17.995186
1.747375	0.000000
1.747501	4.497038
1.747628	26.976955
1.747754	0.000000
1.747881	31.460806
1.748007	8.987043
1.748134	13.477928
1.748260	13.475291
1.748387	13.472653
1.748514	0.000000
1.748640	4.489126
1.748767	13.464742
1.748894	-8.974736
1.749020	17.945955
1.749147	26.913658
1.749274	8.969461
1.749401	17.935406
1.749528	0.000000
1.749655	13.446280
1.749781	17.924856
1.749908	4.480335
1.750035	4.479456
1.750162	8.957153
1.750289	8.955395
1.750416	0.000000
1.750543	13.427817
1.750670	8.950120
1.750797	13.422543
1.750924	13.419905
1.751052	22.362112
1.751179	8.943087
1.751306	22.353321
1.751433	4.469785
1.751560	31.282339
1.751688	31.276186
1.751815	4.467147
1.751942	0.000000
1.752070	4.465389
1.752197	8.929019
1.752324	4.463630
1.752452	8.925502
1.752579	4.461872
1.752707	0.000000
1.752834	17.840454
1.752962	4.459234
1.753089	0.000000
1.753217	13.372427
1.753344	4.456596
1.753472	8.911434
1.753600	22.274189
1.753727	8.907917
1.753855	13.359238
1.753983	4.452200
1.754110	22.256603
1.754238	13.351324
1.754366	17.798248
1.754494	22.243414
1.754622	0.000000
1.754750	13.340773
1.754878	8.892090
1.755005	17.780663
1.755133	22.221432
1.755261	8.886814
1.755389	13.327582
1.755517	17.766592
1.755645	8.881537
1.755773	4.439889
1.755901	13.317030
1.756030	8.876262
1.756158	13.311754
1.756286	4.436372
1.756414	26.612955
1.756542	4.434613
1.756671	13.301202
1.756799	31.029982
1.756927	4.431975
1.757056	22.155479
1.757184	8.860433
1.757312	4.429337
1.757441	8.856915
1.757569	4.427578
1.757698	22.133493
1.757826	13.277458
1.757954	8.849880
1.758083	0.000000
1.758211	8.846362
1.758340	8.844604
1.758469	-8.842844
1.758597	0.000000
1.758726	8.839327
1.758855	13.256351
1.758983	17.671618
1.759112	8.834050
1.759241	4.416146
1.759370	4.415266
1.759498	4.414387
1.759627	8.827014
1.759756	13.237884
1.759885	13.235245
1.760014	8.821737
1.760143	0.000000
1.760272	22.045549
1.760401	8.816461
1.760530	17.629404
1.760659	26.438829
1.760788	4.405592
1.760917	13.214138
1.761046	4.403833
1.761175	17.611814
1.761304	4.402074
1.761434	13.203584
1.761563	17.601261
1.761692	4.399436
1.761822	17.594225
1.761951	8.795354
1.762080	8.793594
1.762209	17.583672
1.762339	13.185115
1.762468	21.970795
1.762598	17.573118
1.762727	17.569599
1.762857	8.783041
1.762986	17.562565
1.763116	8.779523
1.763245	8.777764
1.763375	13.164008
1.763504	0.000000
1.763634	13.158731
1.763764	13.156093
1.763893	4.384485
1.764023	8.767211
1.764153	21.913630
1.764283	13.145539
1.764412	13.142901
1.764542	0.000000
1.764672	13.137625
1.764802	4.378329
1.764932	13.132348
1.765062	17.506279
1.765192	4.375690
1.765322	8.749622
1.765452	8.747863
1.765582	8.746104
1.765712	17.488691
1.765842	8.742586
1.765972	17.481655
1.766102	8.739069
1.766232	17.474621
1.766362	4.367776
1.766493	21.834482
1.766623	21.830086
1.766753	26.190826
1.766883	17.457033
1.767014	21.816895
1.767144	8.724999
1.767274	21.808102
1.767405	13.082223
1.767535	13.079584
1.767666	4.358982
1.767796	8.716206
1.767927	26.143341
1.768057	13.069033
1.768188	21.777325
1.768318	30.482100
1.768449	21.768532
1.768580	21.764135
1.768710	8.703896
1.768841	4.351068
1.768972	8.700379
1.769102	13.047931
1.769233	8.696862
1.769364	21.737759
1.769495	13.040018
1.769626	4.345793
1.769756	17.379658
1.769887	13.032105
1.770018	21.715780
1.770149	8.684554
1.770280	26.048386
1.770411	17.362074
1.770542	17.358559
1.770673	4.338760
1.770804	8.675763
1.770936	13.011007
1.771067	17.344494
1.771198	8.670488
1.771329	17.337461
1.771460	17.333944
1.771591	17.330429
1.771723	12.995185
1.771854	8.661698
1.771985	12.989911
1.772117	12.987274
1.772248	25.969275
1.772379	8.654667
1.772511	12.979364
1.772642	21.627880
1.772774	30.272881
1.772905	8.647636
1.773037	4.322939
1.773168	12.966182
1.773300	0.000000
1.773432	8.640607
1.773563	8.638849
1.773695	8.637092
1.773827	21.588335
1.773958	12.950365
1.774090	12.947729
1.774222	17.260124
1.774354	-4.314153
1.774485	8.626548
1.774617	8.624791
1.774749	8.623034
1.774881	4.310638
1.775013	8.619519
1.775145	12.926644
1.775277	12.924008
1.775409	4.307125
1.775541	8.612493
1.775673	4.305367
1.775805	12.913468
1.775937	12.910833
1.776070	17.210932
1.776202	4.301855
1.776334	25.805857
1.776466	8.600196
1.776598	0.000000
1.776731	17.193367
1.776863	8.594927
1.776995	12.889756
1.777128	12.887121
1.777260	0.000000
1.777393	8.587902
1.777525	8.586146
1.777658	12.876585
1.777790	12.873952
1.777923	8.580878
1.778055	8.579123
1.778188	8.577367
1.778320	8.575611
1.778453	4.286928
1.778586	17.144201
1.778718	25.711035
1.778851	8.568589
1.778984	12.850251
1.779117	8.565079
1.779249	8.563324
1.779382	8.561568
1.779515	12.839721
1.779648	4.279029
1.779781	12.834455
1.779914	8.554549
1.780047	8.552794
1.780180	8.551040
1.780313	8.549285
1.780446	4.273765
1.780579	17.091551
1.780712	12.816031
1.780845	4.271133
1.780978	-4.270257
1.781111	12.808138
1.781245	4.268502
1.781378	17.070501
1.781511	0.000000
1.781644	17.063486
1.781778	0.000000
1.781911	21.320587
1.782044	17.052963
1.782178	25.574184
1.782311	12.784462
1.782445	17.042442
1.782578	8.519468
1.782712	8.517715
1.782845	8.515962
1.782979	8.514209
1.783112	12.768683
1.783246	17.021406
1.783380	12.763426
1.783513	4.253599
1.783647	4.252723
1.783781	12.755539
1.783915	8.501941
1.784048	17.000376
1.784182	4.249218
1.784316	12.745026
1.784450	16.989864
1.784584	4.246590
1.784718	0.000000
1.784852	12.734515
1.784986	12.731888
1.785120	16.972347
1.785254	12.726633
1.785388	12.724007
1.785522	8.480920
1.785656	4.239584
1.785790	16.954836
1.785924	12.713501
1.786059	12.710875
1.786193	21.180414
1.786327	8.470415
1.786461	21.171663
1.786596	4.233458
1.786730	4.232583
1.786864	8.463415
1.786999	4.230833
1.787133	4.229958
1.787268	12.687248
1.787402	12.684624
1.787537	8.454666
1.787671	12.679376
1.787806	12.676752
1.787940	0.000000
1.788075	0.000000
1.788210	8.445921
1.788344	25.332518
1.788479	12.663636
1.788614	25.322025
1.788748	12.658391
1.788883	16.874357
1.789018	8.435431
1.789153	16.867367
1.789288	8.431935
1.789423	12.645282
1.789558	12.642660
1.789693	12.640039
1.789827	4.212473
1.789963	12.634797
1.790098	12.632177
1.790233	8.419704
1.790368	4.208979
1.790503	8.416211
1.790638	12.621697
1.790773	4.206359
1.790908	12.616459
1.791044	21.023066
1.791179	16.814962
1.791314	16.811470
1.791450	12.605985
1.791585	16.804489
1.791720	12.600748
1.791856	16.797508
1.791991	12.595513
1.792127	4.197632
1.792262	12.590280
1.792397	8.391775
1.792533	8.390031
1.792669	20.970716
1.792804	0.000000
1.792940	16.769598
1.793076	25.149166
1.793211	4.190656
1.793347	8.379568
1.793483	0.000000
1.793618	25.128246
1.793754	20.935848
1.793890	4.186298
1.794026	0.000000
1.794162	12.553668
1.794298	12.551055
1.794434	0.000000
1.794570	12.545829
1.794706	12.543217
1.794842	8.360403
1.794978	12.537992
1.795114	8.356920
1.795250	20.887949
1.795386	0.000000
1.795522	0.000000
1.795658	12.524937
1.795795	4.174109
1.795931	0.000000
1.796067	4.172369
1.796203	4.171499
1.796340	20.853148
1.796476	8.339520
1.796613	8.337781
1.796749	8.336041
1.796885	12.501454
1.797022	4.166282
1.797158	8.330827
1.797295	8.329088
1.797432	8.327351
1.797568	4.162807
1.797705	12.485813
1.797841	8.322138
1.797978	0.000000
1.798115	12.477996
1.798252	-4.158463
1.798388	16.630381
1.798525	20.783636
1.798662	29.091015
1.798799	8.309982
1.798936	8.308247
1.799073	0.000000
1.799210	12.457164
1.799346	8.303041
1.799484	0.000000
1.799621	8.299572
1.799758	8.297837
1.799895	8.296103
1.800032	16.588739
1.800169	0.000000
1.800306	12.436354
1.800443	24.867506
1.800581	4.143718
1.800718	16.571405
1.800855	4.141985
1.800992	8.282238
1.801130	8.280506
1.801267	20.696936
1.801404	8.277042
1.801542	20.688278
1.801679	8.273580
1.801817	12.407774
1.801954	-4.135059
1.802092	4.134194
1.802229	8.266658
1.802367	16.529856
1.802505	12.394797
1.802642	12.392202
1.802780	12.389609
1.802918	12.387015
1.803055	12.384422
1.803193	20.636383
1.803331	16.505650
1.803469	12.376645
1.803607	16.498737
1.803745	24.742924
1.803882	16.491829
1.804020	12.366281
1.804158	16.484921
1.804296	16.481468
1.804434	12.358512
1.804572	0.000000
1.804711	4.117778
1.804849	28.818407
1.804987	8.232105
1.805125	12.345572
1.805263	8.228656
1.805401	16.453863
1.805540	12.337811
1.805678	12.335226
1.805816	8.221761
1.805955	12.330056
1.806093	16.436628
1.806231	8.216592
1.806370	20.537172
1.806508	20.532867
1.806647	4.105712
1.806785	8.209703
1.806924	20.519957
1.807063	-4.103131
1.807201	24.613623
1.807340	0.000000
1.807478	16.402201
1.807617	4.099690
1.807756	24.592981
1.807895	12.293912
1.808033	8.194222
1.808172	4.096252
1.808311	4.095393
1.808450	12.283601
1.808589	4.093675
1.808728	16.371265
1.808867	16.367830
1.809006	12.273297
1.809145	0.000000
1.809284	8.178765
1.809423	8.177050
1.809562	8.175334
1.809701	20.434048
1.809840	8.171904
1.809979	8.170189
1.810119	20.421186
1.810258	8.166760
1.810397	8.165047
1.810537	20.408335
1.810676	8.161620
1.810815	8.159908
1.810955	16.316391
1.811094	12.234725
1.811234	8.154772
1.811373	16.306120
1.811512	4.075675
1.811652	8.149638
1.811792	16.295856
1.811931	20.365545
1.812071	16.289017
1.812211	12.214198
1.812350	20.352724
1.812490	0.000000
1.812630	12.206509
1.812769	8.135964
1.812909	0.000000
1.813049	16.265099
1.813189	20.327106
1.813329	8.129136
1.813469	4.063715
1.813609	16.251448
1.813749	16.248035
1.813889	16.244625
1.814029	16.241215
1.814169	12.178355
1.814309	4.058599
1.814449	12.173243
1.814589	16.227583
1.814729	20.280222
1.814870	4.055193
1.815010	4.054342
1.815150	4.053491
1.815290	8.105280
1.815431	20.258947
1.815571	4.050939
1.815711	12.150267
1.815852	16.196955
1.815992	20.241945
1.816133	16.190157
1.816273	0.000000
1.816414	4.045841
1.816555	0.000000
1.816695	0.000000
1.816836	12.129882
1.816976	20.212227
1.817117	20.207985
1.817258	12.122247
1.817399	8.079802
1.817539	12.117160
1.817680	12.114617
1.817821	12.112075
1.817962	8.073023
1.818103	20.178322
1.818244	12.104453
1.818385	4.033971
1.818526	4.033125
1.818667	8.064557
1.818808	8.062865
1.818949	8.061174
1.819090	4.029742
1.819231	16.115585
1.819372	12.084154
1.819513	12.081619
1.819655	8.052724
1.819796	8.051035
1.819937	8.049346
1.820078	4.023829
1.820220	12.068955
1.820361	12.066424
1.820503	12.063894
1.820644	16.081820
1.820786	20.098061
1.820927	8.037539
1.821069	8.035853
1.821210	12.051253
1.821352	4.016243
1.821493	4.015400
1.821635	4.014559
1.821777	12.041153
1.821918	12.038630
1.822060	0.000000
1.822202	0.000000
1.822343	0.000000
1.822485	12.028542
1.822627	8.017347
1.822769	28.054838
1.822911	4.006994
1.823053	16.024620
1.823195	20.026579
1.823337	12.013431
1.823479	8.007277
1.823621	12.008399
1.823763	8.003922
1.823905	20.005617
1.824047	-4.000286
1.824190	0.000000
1.824332	3.998611
1.824474	19.988869
1.824616	3.996937
1.824758	7.992201
1.824901	19.976320
1.825043	0.000000
1.825186	11.980777
1.825328	7.985513
1.825470	11.975763
1.825613	11.973258
1.825755	7.980503
1.825898	7.978833
1.826040	3.988582
1.826183	15.950993
1.826326	11.960742
1.826468	7.972161
1.826611	23.911482
1.826754	11.953242
1.826896	0.000000
1.827039	19.913742
1.827182	19.909580
1.827325	15.924335
1.827468	15.921008
1.827611	3.979420
1.827753	7.957178
1.827896	3.977758
1.828039	23.861563
1.828182	15.904387
1.828325	19.876331
1.828469	11.923308
1.828612	11.920819
1.828755	11.918330
1.828898	23.831686
1.829041	7.942237
1.829184	15.881159
1.829328	7.938923
1.829471	7.937266
1.829614	19.839025
1.829757	3.966978
1.829901	15.864600
1.830044	3.965323
1.830188	7.928992
1.830331	7.927339
1.830475	7.925686
1.830618	11.886051
1.830762	3.961191
1.830905	15.841464
1.831049	0.000000
1.831192	3.958716
1.831336	15.831564
1.831480	7.914134
1.831624	15.824970
1.831767	11.866257
1.831911	19.772976
1.832055	3.953772
1.832199	7.905898
1.832343	3.952126
1.832487	11.853911
1.832631	19.752409
1.832775	7.899320
1.832918	7.897677
1.833063	3.948017
1.833207	7.894392
1.833351	3.946376
1.833495	3.945555
1.833639	7.889470
1.833783	11.831746
1.833927	3.943096
1.834072	11.826830
