#Wave		#Intensity
1.461849	3.996382
1.461927	11.989146
1.462005	0.000000
1.462083	3.994946
1.462161	3.994227
1.462239	7.987019
1.462317	-7.985583
1.462394	0.000000
1.462472	-3.991357
1.462550	11.971919
1.462628	0.000000
1.462706	11.967617
1.462785	7.976978
1.462862	7.975544
1.462941	3.987056
1.463019	11.959019
1.463097	3.985624
1.463175	0.000000
1.463253	7.968384
1.463331	7.966953
1.463409	11.948282
1.463487	3.982046
1.463565	-3.981330
1.463644	0.000000
1.463722	7.959801
1.463800	0.000000
1.463878	0.000000
1.463956	3.977757
1.464035	11.931129
1.464113	7.952658
1.464191	15.902460
1.464270	3.974901
1.464348	19.870939
1.464426	7.946949
1.464504	3.972761
1.464583	7.944096
1.464661	3.971335
1.464740	0.000000
1.464818	7.939818
1.464896	0.000000
1.464975	0.000000
1.465053	-3.967772
1.465132	0.000000
1.465210	7.932695
1.465289	7.931272
1.465367	11.894773
1.465446	7.928425
1.465524	11.890504
1.465603	-3.962790
1.465681	3.962079
1.465760	7.922735
1.465838	0.000000
1.465917	7.919892
1.465996	0.000000
1.466074	3.958525
1.466153	7.915629
1.466231	3.957104
1.466310	3.956394
1.466389	3.955684
1.466467	0.000000
1.466546	3.954265
1.466625	3.953555
1.466704	0.000000
1.466782	7.904273
1.466861	0.000000
1.466940	11.852154
1.467019	0.000000
1.467097	3.949300
1.467176	7.897183
1.467255	7.895766
1.467334	7.894349
1.467413	11.839398
1.467492	11.837274
1.467571	3.945050
1.467649	11.833026
1.467728	7.887268
1.467807	3.942926
1.467886	3.942219
1.467965	7.883022
1.468044	7.881608
1.468123	7.880193
1.468202	7.878779
1.468281	7.877365
1.468360	0.000000
1.468439	3.937268
1.468518	7.873124
1.468597	7.871711
1.468676	11.805447
1.468755	3.934443
1.468835	11.801208
1.468914	7.866060
1.468993	3.932324
1.469072	0.000000
1.469151	0.000000
1.469230	11.790620
1.469310	7.859002
1.469389	3.928795
1.469468	7.856180
1.469547	-3.927385
1.469627	-3.926680
1.469706	7.851949
1.469785	3.925269
1.469864	7.849129
1.469944	15.695439
1.470023	3.923155
1.470102	3.922451
1.470182	11.765238
1.470261	3.921042
1.470340	0.000000
1.470420	11.758900
1.470499	3.918929
1.470579	3.918225
1.470658	3.917521
1.470738	11.750452
1.470817	11.748341
1.470896	7.830820
1.470976	0.000000
1.471056	0.000000
1.471135	3.913300
1.471215	7.825193
1.471294	11.735680
1.471374	-3.911190
1.471453	0.000000
1.471533	11.729353
1.471612	15.636327
1.471692	3.908379
1.471772	11.723029
1.471851	7.813948
1.471931	7.812542
1.472011	0.000000
1.472090	3.904867
1.472170	3.904165
1.472250	-3.903462
1.472330	0.000000
1.472409	15.608233
1.472489	-3.901356
1.472569	3.900655
1.472649	7.799906
1.472729	7.798503
1.472808	7.797100
1.472888	7.795697
1.472968	7.794294
1.473048	0.000000
1.473128	3.895745
1.473208	7.790087
1.473288	7.788685
1.473368	3.893641
1.473448	3.892941
1.473527	0.000000
1.473607	11.674617
1.473687	11.672515
1.473767	7.780275
1.473848	3.889437
1.473927	3.888736
1.474007	0.000000
1.474088	0.000000
1.474168	11.659906
1.474248	0.000000
1.474328	-3.885235
1.474408	11.653605
1.474488	3.883835
1.474568	11.649406
1.474648	7.764871
1.474728	0.000000
1.474809	-3.881036
1.474889	11.641009
1.474969	3.879637
1.475049	7.757875
1.475130	3.878238
1.475210	7.755077
1.475290	3.876839
1.475370	3.876140
1.475451	7.750882
1.475531	7.749484
1.475611	7.748085
1.475692	3.873344
1.475772	3.872645
1.475852	7.743892
1.475933	0.000000
1.476013	11.611646
1.476094	0.000000
1.476174	15.476605
1.476255	3.868453
1.476335	3.867754
1.476415	15.468224
1.476496	7.732715
1.476576	11.596977
1.476657	-3.864961
1.476737	7.728525
1.476818	3.863564
1.476899	7.725733
1.476979	11.586505
1.477060	-3.861470
1.477140	11.582317
1.477221	7.720149
1.477302	0.000000
1.477382	3.858679
1.477463	0.000000
1.477544	15.429134
1.477624	7.713172
1.477705	0.000000
1.477786	3.855191
1.477866	7.708987
1.477947	7.707592
1.478028	7.706197
1.478109	7.704803
1.478190	19.258520
1.478270	0.000000
1.478351	-3.850310
1.478432	11.548838
1.478513	7.697831
1.478594	7.696437
1.478675	3.847522
1.478756	0.000000
1.478836	15.384511
1.478917	-3.845431
1.478998	-3.844734
1.479079	7.688075
1.479160	11.530022
1.479241	11.527932
1.479322	7.683895
1.479403	11.523752
1.479484	7.681108
1.479565	11.519573
1.479646	7.678322
1.479727	7.676930
1.479809	0.000000
1.479890	-3.837072
1.479971	3.836376
1.480052	11.507039
1.480133	3.834983
1.480214	3.834287
1.480295	11.500773
1.480377	7.665790
1.480458	11.496597
1.480539	7.663006
1.480620	-3.830807
1.480702	11.490334
1.480783	15.317660
1.480864	11.486158
1.480945	3.828023
1.481027	3.827328
1.481108	3.826632
1.481189	7.651873
1.481271	11.475721
1.481352	7.649090
1.481433	0.000000
1.481515	-3.823154
1.481596	3.822458
1.481678	11.465288
1.481759	0.000000
1.481841	11.461115
1.481922	7.639353
1.482004	-11.456943
1.482085	3.818285
1.482167	0.000000
1.482248	7.633790
1.482330	7.632400
1.482411	3.815505
1.482493	0.000000
1.482574	11.442342
1.482656	-3.813419
1.482738	7.625448
1.482819	3.812029
1.482901	7.622667
1.482983	0.000000
1.483064	7.619887
1.483146	3.809249
1.483228	7.617107
1.483309	7.615718
1.483391	7.614328
1.483473	-11.419407
1.483555	7.611548
1.483636	3.805079
1.483718	0.000000
1.483800	11.411070
1.483882	3.802995
1.483964	7.604601
1.484046	11.404818
1.484127	3.800911
1.484209	3.800216
1.484291	0.000000
1.484373	0.000000
1.484455	11.394399
1.484537	7.594876
1.484619	3.796744
1.484701	-3.796049
1.484783	-7.590710
1.484865	3.794660
1.484947	3.793966
1.485029	0.000000
1.485111	7.585154
1.485193	3.791883
1.485275	0.000000
1.485357	7.580988
1.485440	11.369399
1.485522	11.367316
1.485604	0.000000
1.485686	0.000000
1.485768	3.787023
1.485850	11.358986
1.485932	11.356903
1.486015	11.354820
1.486097	15.136984
1.486179	7.567104
1.486261	3.782858
1.486344	7.564327
1.486426	7.562939
1.486508	3.780776
1.486591	3.780082
1.486673	3.779387
1.486755	-3.778693
1.486838	3.777999
1.486920	3.777306
1.487003	3.776612
1.487085	0.000000
1.487167	11.325671
1.487250	3.774530
1.487332	0.000000
1.487415	3.773142
1.487497	11.317345
1.487580	0.000000
1.487662	11.313182
1.487745	0.000000
1.487828	3.769673
1.487910	3.768979
1.487993	7.536571
1.488075	7.535183
1.488158	3.766898
1.488240	0.000000
1.488323	-7.531021
1.488406	3.764817
1.488488	15.056492
1.488571	3.763429
1.488654	0.000000
1.488737	11.286126
1.488819	3.761348
1.488902	7.521309
1.488985	3.759961
1.489068	7.518535
1.489150	11.275722
1.489233	15.031521
1.489316	7.514373
1.489399	0.000000
1.489482	7.511599
1.489565	7.510212
1.489647	-3.754412
1.489730	-3.753719
1.489813	3.753025
1.489896	3.752332
1.489979	11.254915
1.490062	3.750945
1.490145	3.750252
1.490228	7.499116
1.490311	11.246593
1.490394	0.000000
1.490477	3.747478
1.490560	3.746784
1.490643	3.746091
1.490726	-3.745397
1.490810	7.489408
1.490893	0.000000
1.490976	3.743317
1.491059	11.227872
1.491142	3.741930
1.491225	0.000000
1.491309	0.000000
1.491392	7.479701
1.491475	3.739157
1.491558	0.000000
1.491642	0.000000
1.491725	7.474154
1.491808	3.736384
1.491891	7.471381
1.491975	11.204992
1.492058	7.468608
1.492141	11.200832
1.492225	-3.732918
1.492308	0.000000
1.492391	11.194593
1.492475	14.923351
1.492558	3.730145
1.492642	3.729451
1.492725	7.457516
1.492809	11.184195
1.492892	-3.727372
1.492976	-3.726678
1.493059	18.629927
1.493143	-3.725292
1.493226	0.000000
1.493310	3.723906
1.493394	7.446425
1.493477	0.000000
1.493561	7.443653
1.493644	7.442266
1.493728	3.720440
1.493812	3.719747
1.493895	7.438107
1.493979	7.436721
1.494063	3.717667
1.494146	3.716974
1.494230	0.000000
1.494314	7.431176
1.494398	7.429790
1.494482	3.714202
1.494565	0.000000
1.494649	0.000000
1.494733	7.424245
1.494817	-3.711430
1.494901	3.710737
1.494985	3.710043
1.495068	7.418701
1.495152	7.417315
1.495236	3.707964
1.495320	0.000000
1.495404	-3.706578
1.495488	0.000000
1.495572	-3.705192
1.495656	0.000000
1.495740	0.000000
1.495824	11.109339
1.495908	7.404840
1.495992	0.000000
1.496076	7.402068
1.496161	3.700341
1.496245	11.098944
1.496329	0.000000
1.496413	7.396524
1.496497	-3.697569
1.496581	7.393752
1.496665	18.480915
1.496750	3.695490
1.496834	0.000000
1.496918	0.000000
1.497002	3.693411
1.497087	3.692718
1.497171	-3.692025
1.497255	-3.691332
1.497340	3.690639
1.497424	11.069839
1.497508	11.067760
1.497593	11.065682
1.497677	11.063603
1.497761	11.061524
1.497846	0.000000
1.497930	3.685789
1.498015	0.000000
1.498099	11.053210
1.498184	7.367421
1.498268	11.049053
1.498353	3.682325
1.498437	3.681632
1.498522	0.000000
1.498606	3.680246
1.498691	3.679553
1.498775	3.678860
1.498860	0.000000
1.498945	7.354949
1.499029	-3.676782
1.499114	14.704356
1.499199	3.675396
1.499283	7.349407
1.499368	14.696043
1.499453	14.693272
1.499538	7.345250
1.499622	7.343864
1.499707	3.671240
1.499792	7.341094
1.499877	0.000000
1.499961	14.676645
1.500046	7.336937
1.500131	7.335552
1.500216	7.334166
1.500301	0.000000
1.500386	3.665698
1.500471	3.665005
1.500556	14.657248
1.500641	7.327239
1.500726	0.000000
1.500811	14.648936
1.500896	0.000000
1.500980	14.643394
1.501066	3.660156
1.501151	10.978390
1.501236	14.635082
1.501321	3.658078
1.501406	7.314771
1.501491	3.656693
1.501576	0.000000
1.501661	3.655308
1.501746	10.963844
1.501832	14.615689
1.501917	3.653230
1.502002	7.305074
1.502087	7.303689
1.502172	0.000000
1.502258	10.951378
1.502343	10.949301
1.502428	-3.649074
1.502513	7.296763
1.502599	3.647689
1.502684	10.940990
1.502769	3.646304
1.502855	3.645612
1.502940	14.579677
1.503026	7.288454
1.503111	3.643534
1.503196	3.642842
1.503282	0.000000
1.503367	10.924371
1.503453	0.000000
1.503538	7.280144
1.503624	3.639380
1.503709	7.277375
1.503795	0.000000
1.503880	10.911907
1.503966	3.636610
1.504052	3.635918
1.504137	3.635226
1.504223	14.538133
1.504308	-3.633841
1.504394	10.899446
1.504480	0.000000
1.504565	0.000000
1.504651	3.631072
1.504737	-3.630379
1.504823	3.629687
1.504908	7.257990
1.504994	10.884908
1.505080	7.255221
1.505166	0.000000
1.505252	7.252452
1.505337	0.000000
1.505423	3.624842
1.505509	3.624150
1.505595	0.000000
1.505681	-7.245531
1.505767	3.622073
1.505853	0.000000
1.505939	0.000000
1.506025	3.619997
1.506111	-3.619305
1.506197	3.618613
1.506283	0.000000
1.506369	0.000000
1.506455	10.849611
1.506541	3.615845
1.506627	3.615153
1.506713	3.614461
1.506799	0.000000
1.506885	7.226155
1.506971	3.612386
1.507058	3.611694
1.507144	7.222004
1.507230	14.441241
1.507316	0.000000
1.507402	7.217854
1.507489	7.216470
1.507575	3.607543
1.507661	10.820555
1.507747	10.818480
1.507834	7.210936
1.507920	0.000000
1.508006	3.604085
1.508093	7.206786
1.508179	7.205403
1.508266	10.806030
1.508352	3.601318
1.508438	0.000000
1.508525	7.199871
1.508611	10.797731
1.508698	-3.598552
1.508784	7.195722
1.508871	0.000000
1.508957	-3.596478
1.509044	7.191573
1.509130	3.595095
1.509217	7.188808
1.509304	10.781137
1.509390	3.593021
1.509477	7.184660
1.509564	14.366555
1.509650	-3.590948
1.509737	3.590256
1.509824	7.179131
1.509910	7.177748
1.509997	3.588183
1.510084	7.174984
1.510171	-3.586801
1.510257	7.172219
1.510344	10.756256
1.510431	10.754183
1.510518	7.168073
1.510605	3.583346
1.510692	7.165309
1.510778	3.581964
1.510865	-3.581273
1.510952	3.580582
1.511039	0.000000
1.511126	3.579201
1.511213	10.735530
1.511300	3.577819
1.511387	7.154257
1.511474	7.152876
1.511561	7.151495
1.511648	3.575057
1.511735	7.148732
1.511822	3.573675
1.511909	3.572985
1.511997	3.572294
1.512084	14.286416
1.512171	3.570914
1.512258	0.000000
1.512345	3.569533
1.512432	7.137685
1.512519	14.272610
1.512607	3.567462
1.512694	3.566772
1.512781	7.132164
1.512869	3.565392
1.512956	0.000000
1.513043	7.128023
1.513131	7.126643
1.513218	10.687894
1.513305	7.123883
1.513393	7.122503
1.513480	0.000000
1.513567	0.000000
1.513655	14.236727
1.513742	3.558492
1.513830	3.557802
1.513917	0.000000
1.514005	10.669269
1.514092	7.111466
1.514180	14.220175
1.514267	14.217416
1.514355	-3.553664
1.514443	7.105950
1.514530	-3.552286
1.514618	7.103192
1.514705	10.652720
1.514793	3.550218
1.514881	-3.549528
1.514969	7.097678
1.515056	7.096300
1.515144	3.547461
1.515232	7.093543
1.515319	14.184330
1.515407	3.545393
1.515495	-3.544704
1.515583	7.088031
1.515671	10.629980
1.515758	10.627913
1.515846	7.083898
1.515934	7.082520
1.516022	7.081143
1.516110	3.539883
1.516198	0.000000
1.516286	10.615518
1.516374	3.537817
1.516462	10.611386
1.516550	3.536440
1.516638	10.607256
1.516726	10.605191
1.516814	0.000000
1.516902	10.601062
1.516990	3.532999
1.517078	7.064621
1.517166	0.000000
1.517254	3.530935
1.517343	3.530247
1.517431	7.059118
1.517519	7.057742
1.517607	10.584549
1.517695	10.582486
1.517784	3.526808
1.517872	3.526120
1.517960	3.525432
1.518048	3.524745
1.518137	7.048115
1.518225	7.046740
1.518313	10.568048
1.518402	10.565986
1.518490	0.000000
1.518578	10.561862
1.518667	10.559800
1.518755	10.557739
1.518844	0.000000
1.518932	3.517872
1.519021	3.517185
1.519109	10.549496
1.519198	14.063247
1.519286	7.030250
1.519375	10.543315
1.519463	7.027503
1.519552	0.000000
1.519641	3.512379
1.519729	10.535076
1.519818	3.511006
1.519906	3.510319
1.519995	0.000000
1.520084	7.017894
1.520173	-3.508261
1.520261	3.507575
1.520350	10.520666
1.520439	3.506203
1.520528	3.505517
1.520616	10.514494
1.520705	3.504146
1.520794	7.006920
1.520883	14.011097
1.520972	10.506266
1.521061	10.504210
1.521149	7.001436
1.521238	10.500097
1.521327	17.496737
1.521416	3.498662
1.521505	6.995954
1.521594	0.000000
1.521683	6.993214
1.521772	10.487766
1.521861	0.000000
1.521950	10.483657
1.522039	6.987735
1.522128	0.000000
1.522218	6.984997
1.522307	3.491814
1.522396	6.982259
1.522485	3.490445
1.522574	6.979522
1.522663	13.956307
1.522753	0.000000
1.522842	3.487709
1.522931	3.487025
1.523020	10.459023
1.523110	6.971314
1.523199	3.484973
1.523288	6.968580
1.523378	6.967213
1.523467	6.965846
1.523556	6.964479
1.523646	3.481556
1.523735	10.442619
1.523824	0.000000
1.523914	6.959013
1.524003	0.000000
1.524093	10.434422
1.524182	3.477458
1.524272	3.476775
1.524361	3.476093
1.524451	20.852461
1.524541	0.000000
1.524630	3.474045
1.524720	6.946726
1.524809	3.472681
1.524899	6.943997
1.524989	6.942633
1.525078	6.941269
1.525168	3.469953
1.525258	3.469271
1.525347	10.405768
1.525437	10.403724
1.525527	10.401679
1.525617	3.466545
1.525706	0.000000
1.525796	13.860729
1.525886	6.929003
1.525976	3.463820
1.526066	6.926279
1.526156	10.387376
1.526246	10.385333
1.526335	6.922194
1.526425	10.381249
1.526515	10.379208
1.526605	3.459056
1.526695	-3.458375
1.526785	3.457695
1.526875	3.457015
1.526965	6.912670
1.527055	3.455655
1.527145	6.909951
1.527236	10.362887
1.527326	0.000000
1.527416	6.905874
1.527506	6.904515
1.527596	3.451578
1.527686	0.000000
1.527776	3.450220
1.527867	10.348623
1.527957	0.000000
1.528047	6.896367
1.528137	-3.447505
1.528228	6.893652
1.528318	10.338444
1.528408	13.781878
1.528499	6.889583
1.528589	10.332339
1.528679	3.443435
1.528770	6.885515
1.528860	6.884159
1.528951	3.441402
1.529041	17.203621
1.529132	0.000000
1.529222	0.000000
1.529313	13.754769
1.529403	3.438015
1.529494	6.874676
1.529584	-3.436661
1.529675	0.000000
1.529765	3.435308
1.529856	6.869263
1.529947	10.301865
1.530037	3.433279
1.530128	0.000000
1.530218	6.863853
1.530309	0.000000
1.530400	6.861149
1.530491	3.429899
1.530581	-3.429223
1.530672	-3.428548
1.530763	13.711490
1.530854	6.854394
1.530945	10.279567
1.531035	0.000000
1.531126	3.425172
1.531217	-0.007581
1.531308	10.271155
1.531399	6.847261
1.531490	3.421589
1.531581	3.430670
1.531672	3.429579
1.531763	17.084383
1.531854	6.862294
1.531945	10.223668
1.532036	6.856846
1.532127	6.860407
1.532218	10.213661
1.532309	6.802719
1.532400	3.476829
1.532491	10.182559
1.532582	6.941050
1.532674	10.280808
1.532765	6.973120
1.532856	3.297098
1.532947	3.282001
1.533038	0.000000
1.533130	3.360075
1.533221	6.954562
1.533312	-0.408338
1.533404	6.831091
1.533495	6.995112
1.533586	3.505171
1.533678	6.831439
1.533769	6.619941
1.533860	3.530719
1.533952	0.495655
1.534043	-2.748603
1.534135	9.244568
1.534226	6.217247
1.534318	7.165779
1.534409	13.672061
1.534501	2.852015
1.534592	9.250535
1.534684	6.839258
1.534775	0.000000
1.534867	6.358284
1.534958	8.381413
1.535050	7.387750
1.535142	3.710312
1.535233	-1.212534
1.535325	0.639642
1.535417	4.437352
1.535509	0.709736
1.535600	9.165273
1.535692	6.858993
1.535784	6.861442
1.535876	3.863793
1.535967	7.771618
1.536059	8.883004
1.536151	6.872377
1.536243	3.767223
1.536335	8.694615
1.536427	1.746828
1.536519	10.916649
1.536611	6.888648
1.536703	4.335798
1.536795	6.773478
1.536887	1.383337
1.536979	6.761530
1.537071	0.000000
1.537163	-4.230834
1.537255	1.047021
1.537347	6.920663
1.537439	8.651353
1.537531	-1.003132
1.537623	9.476759
1.537715	3.114819
1.537807	3.952415
1.537900	6.948881
1.537992	9.377258
1.538084	2.392353
1.538176	11.449310
1.538269	6.987883
1.538361	6.975298
1.538453	11.696964
1.538545	11.741021
1.538638	0.000000
1.538730	7.500020
1.538823	4.872234
1.538915	4.194917
1.539007	7.015570
1.539100	17.943155
1.539192	0.000000
1.539285	8.190643
1.539377	8.308268
1.539470	5.665620
1.539562	7.052218
1.539655	7.058444
1.539747	5.346149
1.539840	5.239208
1.539932	10.733008
1.540025	-2.058433
1.540118	8.729116
1.540210	4.811054
1.540303	20.568821
1.540396	9.619406
1.540488	1.497166
1.540581	2.923766
1.540674	-1.420180
1.540767	10.091274
1.540859	21.772581
1.540952	12.968490
1.541045	7.151489
1.541138	2.508196
1.541231	9.445414
1.541324	11.964690
1.541416	-1.406586
1.541509	12.119624
1.541602	18.293751
1.541695	8.248099
1.541788	22.641966
1.541881	21.854414
1.541974	6.244709
1.542067	12.560745
1.542160	0.901831
1.542253	-3.733282
1.542346	-3.011420
1.542439	12.835002
1.542532	-1.731838
1.542625	12.206329
1.542719	13.028336
1.542812	12.385252
1.542905	6.575507
1.542998	7.912047
1.543091	7.891067
1.543185	6.662697
1.543278	18.911427
1.543371	1.113134
1.543464	2.668588
1.543558	7.792573
1.543651	1.469003
1.543744	7.756198
1.543838	1.791278
1.543931	15.443108
1.544024	14.185251
1.544118	20.341753
1.544211	8.414220
1.544305	20.855581
1.544398	20.579576
1.544492	27.007597
1.544585	0.000000
1.544679	-12.622269
1.544772	14.088868
1.544866	7.317428
1.544959	34.658970
1.545053	-6.407408
1.545147	-13.354179
1.545240	-6.312247
1.545334	7.325087
1.545428	7.148130
1.545521	7.160612
1.545615	14.500989
1.545709	7.474840
1.545802	7.601114
1.545896	0.503512
1.545990	7.331590
1.546084	14.553709
1.546178	7.231640
1.546271	14.479873
1.546365	21.659035
1.546459	-13.893485
1.546553	0.070326
1.546647	0.191790
1.546741	14.375228
1.546835	7.332244
1.546929	-7.050867
1.547023	7.289957
1.547117	7.331496
1.547211	14.629395
1.547305	0.028768
1.547399	7.330130
1.547493	-14.508124
1.547587	29.205189
1.547681	14.625354
1.547775	7.340322
1.547869	0.021094
1.547964	14.626087
1.548058	0.006608
1.548152	0.015016
1.548246	0.010915
1.548340	14.640866
1.548434	14.637934
1.548529	14.636977
1.548623	-7.316595
1.548717	7.316971
1.548812	-7.315564
1.548890	21.942696
1.548982	7.312900
1.549075	14.623136
1.549167	29.240944
1.549259	7.308904
1.549352	0.000000
1.549444	0.000000
1.549536	-7.304909
1.549629	7.303578
1.549721	14.604493
1.549814	0.000000
1.549906	14.599168
1.549999	7.298253
1.550091	0.000000
1.550184	21.886772
1.550276	0.000000
1.550369	7.292929
1.550461	7.291598
1.550554	29.161070
1.550646	14.577874
1.550739	-7.287607
1.550832	-7.286276
1.550924	-7.284946
1.551017	14.567231
1.551110	-7.282285
1.551202	7.280955
1.551295	7.279625
1.551388	7.278295
1.551480	0.000000
1.551573	-14.551270
1.551666	29.097221
1.551759	-7.272975
1.551852	7.271646
1.551944	0.000000
1.552037	-7.268987
1.552130	21.802971
1.552223	14.532656
1.552316	21.794996
1.552409	7.263669
1.552502	7.262340
1.552595	7.261011
1.552688	7.259682
1.552780	0.000000
1.552873	0.000000
1.552966	0.000000
1.553059	7.254366
1.553152	0.000000
1.553246	7.251708
1.553339	7.250380
1.553432	0.000000
1.553525	21.743166
1.553618	-14.492787
1.553711	7.245065
1.553804	7.243737
1.553898	0.000000
1.553991	7.241080
1.554084	0.000000
1.554177	0.000000
1.554270	0.000000
1.554364	21.707300
1.554457	-7.234439
1.554550	7.233111
1.554643	0.000000
1.554737	0.000000
1.554830	0.000000
1.554924	7.227799
1.555017	-7.226471
1.555110	7.225143
1.555204	-7.223815
1.555297	14.444976
1.555391	14.442321
1.555484	7.219832
1.555578	7.218505
1.555671	14.434355
1.555765	-7.215850
1.555858	-7.214522
1.555952	0.000000
1.556045	7.211868
1.556139	21.631620
1.556232	14.418427
1.556326	-7.207886
1.556420	0.000000
1.556513	14.410462
1.556607	7.203904
1.556701	14.405154
1.556795	0.000000
1.556888	7.199923
1.556982	-21.595787
1.557076	7.197269
1.557170	-7.195942
1.557263	7.194615
1.557357	21.579865
1.557451	-7.191961
1.557545	0.000000
1.557639	7.189308
1.557733	21.563942
1.557827	14.373308
1.557920	0.000000
1.558014	0.000000
1.558108	21.548023
1.558202	14.362695
1.558296	14.360042
1.558390	14.357388
1.558484	7.177368
1.558578	14.352082
1.558672	14.349429
1.558766	7.173388
1.558861	0.000000
1.558955	14.341471
1.559049	14.338819
1.559143	7.168083
1.559237	14.333512
1.559331	-7.165430
1.559425	7.164104
1.559520	7.162777
1.559614	-7.161451
1.559708	14.320250
1.559802	21.476397
1.559897	7.157473
1.559991	0.000000
1.560085	14.309640
1.560180	0.000000
1.560274	0.000000
1.560368	14.301683
1.560463	14.299031
1.560557	7.148190
1.560652	7.146863
1.560746	14.291075
1.560840	-7.144211
1.560935	21.428656
1.561029	7.141560
1.561124	0.000000
1.561219	14.277815
1.561313	7.137581
1.561408	7.136256
1.561502	21.404789
1.561597	0.000000
1.561691	7.132278
1.561786	0.000000
1.561881	-7.129626
1.561975	14.256600
1.562070	14.253949
1.562165	0.000000
1.562259	7.124323
1.562354	0.000000
1.562449	7.121671
1.562544	28.481382
1.562639	21.357059
1.562733	0.000000
1.562828	21.349104
1.562923	7.115043
1.563018	21.341150
1.563113	-14.224782
1.563208	14.222131
1.563303	-7.109740
1.563397	21.325241
1.563493	14.214176
1.563587	0.000000
1.563682	-7.104437
1.563777	21.309334
1.563872	21.305357
1.563967	35.502300
1.564063	0.000000
1.564158	7.097809
1.564253	21.289450
1.564348	7.095158
1.564443	-14.187664
1.564538	14.185013
1.564633	14.182362
1.564728	21.269566
1.564824	0.000000
1.564919	21.261612
1.565014	14.171757
1.565109	21.253658
1.565205	7.083227
1.565300	28.327606
1.565395	14.161152
1.565491	28.317001
1.565586	0.000000
1.565681	14.153199
1.565777	-7.075274
1.565872	0.000000
1.565967	7.072623
1.566063	0.000000
1.566158	7.069972
1.566254	28.274584
1.566349	14.134642
1.566445	28.263981
1.566540	14.129339
1.566636	0.000000
1.566731	7.062018
1.566827	0.000000
1.566923	14.118735
1.567018	-7.058042
1.567114	0.000000
1.567209	35.276955
1.567305	0.000000
1.567401	-7.052740
1.567497	21.154243
1.567592	7.050089
1.567688	7.048763
1.567784	14.094875
1.567880	0.000000
1.567975	7.044787
1.568071	14.086923
1.568167	21.126408
1.568263	14.081620
1.568359	21.118454
1.568455	-7.038159
1.568550	7.036834
1.568646	7.035508
1.568742	0.000000
1.568838	0.000000
1.568934	-7.031532
1.569030	14.060412
1.569126	7.028881
1.569222	7.027555
1.569318	0.000000
1.569414	7.024904
1.569510	14.047157
1.569607	0.000000
1.569703	21.062782
1.569799	7.019602
1.569895	0.000000
1.569991	7.016951
1.570087	14.031251
1.570184	21.042900
1.570280	0.000000
1.570376	0.000000
1.570472	35.051617
1.570568	14.017996
1.570665	28.030691
1.570761	7.006347
1.570858	21.015064
1.570954	7.003696
1.571050	-7.002370
1.571147	14.002090
1.571243	20.999159
1.571339	6.998394
1.571436	41.982410
1.571532	27.982971
1.571629	20.983252
1.571725	13.986184
1.571822	13.983533
1.571918	6.990441
1.572015	13.978230
1.572111	6.987790
1.572208	6.986465
1.572305	20.955416
1.572401	0.000000
1.572498	34.912437
1.572595	6.981162
1.572691	13.959673
1.572788	6.978511
1.572885	20.931557
1.572981	6.975860
1.573078	27.898138
1.573175	0.000000
1.573272	0.000000
1.573369	6.970558
1.573465	20.907698
1.573562	13.935814
1.573659	6.966581
1.573756	13.930511
1.573853	20.891790
1.573950	34.813023
1.574047	13.922559
1.574144	0.000000
1.574241	6.958628
1.574338	0.000000
1.574435	0.000000
1.574532	6.954652
1.574629	0.000000
1.574726	20.856003
1.574823	6.950675
1.574920	27.797400
1.575017	6.948024
1.575114	20.840096
1.575212	0.000000
1.575309	13.888096
1.575406	6.942722
1.575503	13.882793
1.575600	27.760286
1.575698	6.938746
1.575795	-6.937420
1.575892	0.000000
1.575990	-6.934770
1.576087	0.000000
1.576184	-6.932118
1.576282	13.861587
1.576379	-6.929468
1.576476	20.784428
1.576574	13.853634
1.576671	27.701965
1.576769	0.000000
1.576866	27.691362
1.576964	20.764545
1.577061	20.760569
1.577159	13.837729
1.577256	20.752617
1.577354	20.748640
1.577451	27.659554
1.577549	27.654251
1.577647	6.912238
1.577744	20.732737
1.577842	27.638348
1.577940	0.000000
1.578037	20.720808
1.578135	13.811222
1.578233	27.617142
1.578331	41.417763
1.578429	6.901635
1.578526	20.700930
1.578624	6.898984
1.578722	20.692978
1.578820	13.792667
1.578918	13.790017
1.579015	6.893683
1.579113	13.784717
1.579211	0.000000
1.579309	0.000000
1.579407	0.000000
1.579505	41.322346
1.579603	13.771464
1.579701	41.306442
1.579799	6.883082
1.579897	0.000000
1.579996	-13.760863
1.580094	20.637320
1.580192	20.633345
1.580290	27.505827
1.580388	20.625395
1.580486	20.621420
1.580584	6.872481
1.580683	13.742313
1.580781	27.479326
1.580879	13.737013
1.580977	6.867182
1.581076	0.000000
1.581174	20.593596
1.581272	13.726414
1.581371	13.723764
1.581469	27.442228
1.581567	13.718465
1.581666	27.431631
1.581764	20.569748
1.581863	20.565775
1.581961	13.707867
1.582060	20.557825
1.582158	13.702568
1.582256	6.849959
1.582355	0.000000
1.582454	13.694619
1.582552	41.075912
1.582651	27.378643
1.582749	13.686672
1.582848	20.526033
1.582947	20.522060
1.583045	6.839363
1.583144	27.352152
1.583243	13.673427
1.583341	6.835389
1.583440	0.000000
1.583539	6.832740
1.583638	0.000000
1.583737	13.660183
1.583835	20.486301
1.583934	20.482328
1.584033	20.478357
1.584132	20.474384
1.584231	27.293882
1.584330	6.822146
1.584429	13.641644
1.584528	20.458494
1.584627	40.909046
1.584726	6.816850
1.584825	13.631052
1.584924	27.256809
1.585023	20.438635
1.585122	27.246218
1.585221	13.620461
1.585320	20.426720
1.585419	13.615166
1.585518	20.418777
1.585617	6.804935
1.585717	34.018059
1.585816	20.406864
1.585915	6.800964
1.586014	6.799641
1.586114	20.394953
1.586213	20.390982
1.586312	27.182682
1.586412	20.383041
1.586511	6.793024
1.586610	13.583401
1.586709	20.371132
1.586809	20.367161
1.586908	27.150923
1.587008	27.145630
1.587107	-6.785084
1.587207	27.135044
1.587306	20.347315
1.587406	20.343346
1.587505	13.559585
1.587605	0.000000
1.587704	20.331440
1.587804	47.430767
1.587904	27.098003
1.588003	13.546356
1.588103	6.771855
1.588203	20.311600
1.588302	13.538421
1.588402	40.607327
1.588502	6.766565
1.588601	13.530486
1.588701	27.055683
1.588801	6.762599
1.588901	13.522552
1.589001	27.039816
1.589101	6.758632
1.589200	13.514619
1.589300	27.023951
1.589400	27.018663
1.589500	27.013374
1.589600	13.504044
1.589700	-6.750700
1.589800	13.498756
1.589900	20.244169
1.590000	6.746735
1.590100	13.490827
1.590200	13.488184
1.590300	20.228312
1.590400	6.741449
1.590500	6.740128
1.590601	6.738806
1.590701	13.474970
1.590801	26.944656
1.590901	0.000000
1.591001	20.200565
1.591102	20.196604
1.591202	40.385281
1.591302	26.918238
1.591402	6.728239
1.591503	13.453835
1.591603	6.725597
1.591703	26.897106
1.591804	26.891825
1.591904	13.443272
1.592005	6.720315
1.592105	6.718995
1.592206	26.870701
1.592306	0.000000
1.592407	20.145105
1.592507	33.568573
1.592607	13.424790
1.592708	33.555378
1.592809	20.129267
1.592909	20.125307
1.593010	20.121349
1.593111	6.705797
1.593211	13.408955
1.593312	13.406316
1.593413	26.807354
1.593513	20.101559
1.593614	6.699201
1.593715	13.395762
1.593816	20.089687
1.593916	20.085732
1.594017	13.387850
1.594118	26.770424
1.594219	26.765150
1.594320	26.759876
1.594421	40.131905
1.594522	26.749329
1.594622	33.430069
1.594723	26.738783
1.594824	26.733511
1.594925	26.728239
1.595026	20.042227
1.595127	20.038273
1.595228	20.034319
1.595330	20.030367
1.595431	13.350943
1.595532	26.696615
1.595633	6.672837
1.595734	40.029118
1.595835	40.021214
1.595936	0.000000
1.596038	33.337841
1.596139	26.665007
1.596240	26.659739
1.596341	33.318092
1.596443	26.649206
1.596544	26.643942
1.596645	19.979008
1.596747	0.000000
1.596848	26.628147
1.596949	6.655721
1.597051	19.963215
1.597152	26.612356
1.597254	26.607094
1.597355	19.951372
1.597457	26.596569
1.597558	19.943481
1.597660	19.939535
1.597761	19.935589
1.597863	26.575525
1.597964	19.927700
1.598066	13.282503
1.598168	6.639937
1.598269	6.638623
1.598371	46.461155
1.598473	19.907982
1.598574	39.808079
1.598676	13.266731
1.598778	19.896154
1.598880	33.153687
1.598981	0.000000
1.599083	13.256221
1.599185	13.253593
1.599287	46.378384
1.599389	26.496681
1.599491	26.491428
1.599593	33.107719
1.599694	26.480925
1.599797	33.094593
1.599899	33.088032
1.600001	13.232587
1.600103	19.844944
1.600205	19.841007
1.600307	13.224714
1.600409	33.055225
1.600511	33.048668
1.600613	46.258949
1.600715	46.249771
1.600817	0.000000
1.600919	26.417950
1.601022	26.412704
1.601124	46.213058
1.601226	19.801662
1.601328	39.595463
1.601431	0.000000
1.601533	19.789867
1.601635	26.381250
1.601737	32.970013
1.601840	32.963463
1.601942	26.365530
1.602045	19.770218
1.602147	19.766291
1.602250	46.112179
1.602352	32.930725
1.602455	13.169671
1.602557	26.334106
1.602660	19.746653
1.602762	39.485455
1.602865	19.738802
1.602967	32.891460
1.603070	46.038891
1.603172	13.151353
1.603275	26.297474
1.603378	19.719183
1.603480	19.715260
1.603583	39.422676
1.603686	26.276554
1.603789	19.703495
1.603891	19.699574
1.603994	19.695654
1.604097	39.383469
1.604200	32.813026
1.604303	26.245195
1.604406	26.239971
1.604508	6.558687
1.604611	26.229525
1.604714	32.780376
1.604817	0.000000
1.604920	13.106930
1.605023	13.104320
1.605126	39.305130
1.605229	32.747753
1.605332	45.837719
1.605435	19.640825
1.605539	26.182549
1.605642	32.721668
1.605745	32.715149
1.605848	32.708630
1.605951	39.242535
1.606054	26.156477
1.606158	19.613449
1.606261	19.609541
1.606364	26.140842
1.606467	19.601725
1.606571	26.130424
1.606674	19.593912
1.606777	52.240013
1.606881	32.643501
1.606984	19.582195
1.607087	39.156582
1.607191	13.049592
1.607294	32.617474
1.607398	26.088778
1.607501	32.604469
1.607605	26.078373
1.607708	13.036587
1.607812	39.101959
1.607915	45.609856
1.608019	13.028788
1.608123	13.026189
1.608226	45.582569
1.608330	52.083973
1.608434	19.527594
1.608537	19.523697
1.608641	45.546204
1.608745	45.537117
1.608848	19.512014
1.608952	52.021656
1.609056	19.504229
1.609160	26.000448
1.609264	25.995260
1.609368	38.985111
1.609471	58.465996
1.609575	32.474625
1.609679	19.480886
1.609783	19.476999
1.609887	45.437260
1.609991	32.448708
1.610095	51.907574
1.610199	19.461454
1.610303	25.943426
1.610407	45.391933
1.610511	32.416336
1.610615	64.813583
1.610720	38.883976
1.610824	32.396603
1.610928	38.867672
1.611032	19.442951
1.611136	12.975379
1.611241	38.859966
1.611345	25.896759
1.611449	45.271740
1.611553	38.827797
1.611658	45.306355
1.611762	38.879711
1.611866	38.835148
1.611971	45.204594
1.612075	38.762173
1.612180	38.792583
1.612284	25.921867
1.612389	13.126915
1.612493	45.045521
1.612598	32.253132
1.612702	64.019867
1.612807	38.764629
1.612911	38.760761
1.613016	57.131706
1.613120	64.163460
1.613225	32.440594
1.613330	13.703953
1.613434	13.167406
1.613539	26.376650
1.613644	45.167561
1.613748	38.353683
1.613853	44.328613
1.613958	50.903687
1.614063	26.622446
1.614168	46.174927
1.614272	27.288368
1.614377	27.387892
1.614482	49.977161
1.614587	32.001659
1.614692	39.444221
1.614797	51.148678
1.614902	39.137508
1.615007	39.584835
1.615112	39.635712
1.615217	56.469730
1.615322	26.992975
1.615427	33.953335
1.615532	49.836056
1.615637	21.411440
1.615742	40.594524
1.615848	50.199711
1.615953	33.096146
1.616058	21.149538
1.616163	40.260525
1.616269	29.202070
1.616374	23.025490
1.616479	41.769615
1.616584	42.503563
1.616690	46.057205
1.616795	49.548561
1.616900	32.532856
1.617006	47.221321
1.617111	43.162685
1.617216	41.105530
1.617322	32.593323
1.617427	51.452221
1.617533	38.901596
1.617638	46.268234
1.617744	63.530453
1.617849	40.327255
1.617955	43.763184
1.618061	40.450191
1.618166	49.828064
1.618272	48.161152
1.618378	32.776131
1.618483	23.738363
1.618589	50.697155
1.618695	52.444416
1.618801	47.676113
1.618906	43.362812
1.619012	45.579288
1.619118	47.432194
1.619224	43.323990
1.619329	47.210148
1.619435	43.126736
1.619541	44.736877
1.619647	72.994125
1.619753	38.751675
1.619859	51.345119
1.619965	41.558449
1.620071	36.715076
1.620177	68.026222
1.620283	46.176895
1.620389	54.231453
1.620495	56.557262
1.620601	39.347416
1.620708	48.347168
1.620813	54.764893
1.620920	63.672314
1.621026	51.178459
1.621132	55.169334
1.621238	45.867657
1.621345	60.343555
1.621451	52.997917
1.621557	59.068024
1.621663	56.691051
1.621770	55.057831
1.621876	35.998657
1.621983	47.831509
1.622089	39.592873
1.622195	51.528027
1.622302	27.679911
1.622408	69.072395
1.622515	31.859945
1.622621	43.673553
1.622728	55.589294
1.622834	55.644672
1.622941	47.942501
1.623047	41.497417
1.623154	62.636539
1.623261	53.244717
1.623367	40.250847
1.623474	54.680969
1.623581	54.575710
1.623688	79.770691
1.623794	43.981487
1.623901	45.171402
1.624008	51.592907
1.624115	53.751114
1.624221	69.102501
1.624328	38.588684
1.624435	57.447330
1.624542	47.850613
1.624649	39.902122
1.624756	93.467316
1.624863	76.128922
1.624970	53.362377
1.625077	59.846481
1.625184	64.038048
1.625291	65.536316
1.625398	45.767593
1.625505	69.899940
1.625612	29.024332
1.625719	58.009007
1.625826	59.176720
1.625933	36.476398
1.626041	31.659708
1.626148	40.501499
1.626255	50.099648
1.626362	31.645742
1.626469	40.861687
1.626577	31.305498
1.626684	62.694397
1.626791	46.128284
1.626899	52.204464
1.627006	57.284634
1.627114	62.443203
1.627221	67.124329
1.627328	56.747021
1.627436	62.762268
1.627543	45.971359
1.627651	63.592022
1.627758	63.156136
1.627866	57.738434
1.627974	34.739708
1.628081	62.641975
1.628189	45.992023
1.628296	74.129898
1.628404	68.628494
1.628512	85.892632
1.628619	62.877804
1.628727	68.192535
1.628835	57.134708
1.628942	79.875801
1.629050	29.075279
1.629158	51.618015
1.629266	45.905384
1.629374	68.393456
1.629482	57.095333
1.629590	68.496529
1.629697	62.752617
1.629805	45.689587
1.629913	68.395981
1.630021	51.360546
1.630129	79.782829
1.630237	74.099884
1.630345	62.683636
1.630453	45.584251
1.630561	39.878284
1.630670	45.563015
1.630778	45.562889
1.630795	79.720306
1.630901	85.398811
1.631007	73.998611
1.631113	68.293770
1.631219	56.900944
1.631325	56.890411
1.631431	68.255852
1.631537	96.677895
1.631643	79.602348
1.631750	85.272430
1.631856	56.837761
1.631962	62.509956
1.632068	62.498375
1.632174	45.444942
1.632280	73.834343
1.632386	68.142151
1.632493	68.129517
1.632599	79.469704
1.632705	56.753548
1.632811	79.440239
1.632918	79.425507
1.633024	62.394176
1.633130	85.067184
1.633237	79.381310
1.633343	68.028496
1.633449	73.683861
1.633556	34.001625
1.633662	90.654167
1.633769	67.977997
1.633875	67.965378
1.633982	67.952759
1.634088	62.278458
1.634195	73.588142
1.634301	62.255318
1.634408	50.926704
1.634514	28.287355
1.634621	73.533455
1.634728	73.519783
1.634834	67.851799
1.634941	96.105507
1.635048	79.130989
1.635154	50.860462
1.635261	62.151222
1.635368	79.086838
1.635475	50.832077
1.635581	84.704361
1.635688	62.104969
1.635795	62.093407
1.635902	73.369453
1.636009	62.070282
1.636116	67.700424
1.636222	56.406509
1.636329	112.792000
1.636436	67.662590
1.636543	33.824989
1.636650	67.637367
1.636757	78.895554
1.636864	78.880844
1.636971	61.966248
1.637078	50.690201
1.637185	84.467911
1.637293	101.342575
1.637400	112.581856
1.637507	90.048676
1.637614	61.896908
1.637721	61.885353
1.637828	84.373360
1.637936	61.862240
1.638043	89.964638
1.638150	61.839134
1.638257	112.413780
1.638365	112.392776
1.638472	73.041649
1.638579	84.263069
1.638687	112.329758
1.638794	95.462440
1.638902	72.987038
1.639009	67.360046
1.639116	78.572021
1.639224	67.334846
1.639331	89.762993
1.639439	112.182739
1.639546	78.513214
1.639654	84.105553
1.639761	72.877831
1.639869	56.049366
1.639977	84.058304
1.640084	89.645386
1.640192	72.823227
1.640300	72.809578
1.640407	100.794365
1.640515	111.972748
1.640623	89.561401
1.640730	67.158447
1.640838	78.336830
1.640946	95.105446
1.641054	89.494209
1.641162	89.477417
1.641269	100.643196
1.641377	100.624306
1.641485	89.427032
1.641593	94.998375
1.641701	72.632172
1.641809	50.274364
1.641917	67.019890
1.642025	94.927002
1.642133	100.492050
1.642241	61.400261
1.642349	89.292679
1.642457	66.956917
1.642565	72.523010
1.642673	83.664658
1.642781	78.072319
1.642890	100.359802
1.642998	72.468437
1.643106	78.028236
1.643214	111.447922
1.643322	100.284241
1.643431	111.405945
1.643539	116.954201
1.643647	111.363968
1.643756	77.940086
1.643864	105.755890
1.643972	89.040802
1.644081	77.896011
1.644189	89.007225
1.644297	94.552338
1.644406	88.973640
1.644514	94.516655
1.644623	105.616325
1.644731	100.038681
1.644840	122.246414
1.644948	100.000908
1.645057	88.872910
1.645166	83.302612
1.645274	99.944244
1.645383	66.616905
1.645491	122.107910
1.645600	88.788963
1.645709	61.030869
1.645817	83.208176
1.645926	88.738594
1.646035	77.631584
1.646144	88.705025
1.646253	94.231247
1.646361	105.297340
1.646470	105.277405
1.646579	88.637871
1.646688	72.004631
1.646797	132.906433
1.646906	77.514069
1.647015	121.784737
1.647124	121.761658
1.647233	99.604286
1.647341	77.455307
1.647450	88.503571
1.647560	99.547630
1.647669	66.352493
1.647778	99.509857
1.647887	77.381866
1.647996	82.893402
1.648105	121.553909
1.648214	110.482567
1.648323	88.369270
1.648432	93.874512
1.648542	99.377655
1.648651	88.318909
1.648760	104.858765
1.648870	99.320999
1.648979	88.268547
1.649088	99.283226
1.649197	115.808395
1.649307	71.677277
1.649416	93.713982
1.649526	154.323059
1.649635	71.636353
1.649745	88.151031
1.649854	104.659416
1.649964	121.161507
1.650073	93.606964
1.650183	66.062912
1.650292	104.579674
1.650402	66.037727
1.650511	104.539803
1.650621	126.524055
1.650731	104.499931
1.650840	115.477898
1.650950	98.962166
1.651060	82.452736
1.651169	109.915993
1.651279	131.874008
1.651389	82.405518
1.651499	120.838341
1.651608	93.357246
1.651718	115.301620
1.651828	71.363556
1.651938	98.792191
1.652048	76.823677
1.652158	104.240768
1.652268	120.676758
1.652378	109.685158
1.652488	98.697754
1.652598	98.678864
1.652708	87.697762
1.652818	98.641090
1.652928	93.143196
1.653038	87.647392
1.653148	104.061340
1.653258	104.041405
1.653368	98.546654
1.653478	120.422829
1.653589	109.454308
1.653699	103.961655
1.653809	109.412338
1.653919	92.982651
1.654029	87.496292
1.654140	103.881905
1.654250	103.861969
1.654360	147.564987
1.654471	103.822098
1.654581	114.728699
1.654691	81.933334
1.654802	125.606972
1.654912	114.662590
1.655023	103.722404
1.655133	103.702469
1.655244	81.854630
1.655354	76.382957
1.655465	120.007278
1.655576	114.530365
1.655686	119.961105
1.655797	92.679382
1.655907	114.464256
1.656018	108.992584
1.656129	87.177277
1.656239	98.055550
1.656350	92.590179
1.656461	114.354065
1.656572	103.443260
1.656682	87.093323
1.656793	97.961098
1.656904	87.059738
1.657015	92.483131
1.657126	92.465294
1.657236	108.761711
1.657347	97.866646
1.657458	114.155716
1.657569	108.698738
1.657680	124.979408
1.657791	141.253784
1.657902	103.203979
1.658013	97.753304
1.658124	76.015656
1.658235	92.286880
1.658347	113.979401
1.658458	119.383904
1.658569	103.084335
1.658680	113.913277
1.658791	119.314629
1.658902	130.136230
1.659014	81.319397
1.659125	102.984634
1.659236	113.803078
1.659347	102.944748
1.659459	119.176094
1.659570	124.569046
1.659681	81.224937
1.659793	108.278931
1.659904	97.432144
1.660016	108.236946
1.660127	102.805161
1.660239	91.965721
1.660350	75.721779
1.660461	135.191223
1.660573	97.318794
1.660685	102.705452
1.660796	129.708008
1.660908	81.051758
1.661019	91.840820
1.661131	102.625679
1.661243	81.004532
1.661354	102.585793
1.661466	97.167648
1.661578	102.545914
1.661690	113.318176
1.661801	97.110970
1.661913	156.426132
1.662025	118.645004
1.662137	118.621918
1.662249	97.035400
1.662360	129.355347
1.662472	102.386375
1.662584	70.040192
1.662696	129.279770
1.662808	102.326546
1.662920	96.922043
1.663032	96.903152
1.663144	80.736885
1.663256	91.483955
1.663368	59.183956
1.663481	86.068962
1.663593	112.943474
1.663705	102.167007
1.663817	129.027878
1.663929	96.752014
1.664041	91.359062
1.664154	96.714226
1.664266	91.323372
1.664378	85.934616
1.664490	80.547958
1.664603	107.376289
1.664715	91.252007
1.664827	112.701019
1.664940	96.581985
1.665052	80.469246
1.665165	101.907768
1.665277	75.075241
1.665390	107.229355
1.665502	75.045853
1.665614	112.546738
1.665727	91.091423
1.665840	85.716316
1.665952	85.699524
1.666065	80.327560
1.666177	91.020058
1.666290	91.002220
1.666403	85.632355
1.666515	96.317505
1.666628	96.298615
1.666741	112.326347
1.666854	85.565186
1.666966	74.854851
1.667079	96.223061
1.667192	106.893517
1.667305	53.436264
1.667418	90.823814
1.667531	64.098335
1.667644	90.788132
1.667757	74.752007
1.667869	64.060555
1.667982	58.710632
1.668095	101.389336
1.668208	64.022781
1.668321	80.012733
1.668435	58.664463
1.668548	90.645424
1.668661	101.289650
1.668774	90.609749
1.668887	79.934036
1.669000	79.918297
1.669113	79.902557
1.669227	95.864189
1.669340	79.871086
1.669453	90.502724
1.669567	69.194328
1.669680	69.180687
1.669793	95.769760
1.669906	63.833916
1.670020	111.687325
1.670133	74.443527
1.670247	85.061531
1.670360	74.414154
1.670474	58.456726
1.670587	69.071579
1.670701	95.618690
1.670814	90.288712
1.670928	79.650772
1.671041	53.090027
1.671155	53.079536
1.671268	79.603569
1.671382	68.976128
1.671496	90.181717
1.671610	58.341339
1.671723	79.540642
1.671837	74.223244
1.671951	68.907951
1.672065	79.493439
1.672178	63.582169
1.672292	79.461983
1.672406	90.039085
1.672520	74.135147
1.672634	63.531830
1.672748	95.278870
1.672862	68.798882
1.672976	63.494080
1.673090	68.771622
1.673204	68.757988
1.673318	79.320412
1.673432	63.443748
1.673546	74.003029
1.673660	79.273232
1.673774	84.541344
1.673888	73.959000
1.674002	79.226059
1.674116	63.368263
1.674231	63.355686
1.674345	58.064514
1.674459	47.497894
1.674574	63.317947
1.674688	73.856262
1.674802	68.567192
1.674917	84.373619
1.675031	68.539940
1.675145	42.170040
1.675260	63.242485
1.675374	68.499069
1.675489	84.289772
1.675603	79.005943
1.675718	47.394135
1.675832	84.239479
1.675947	84.222710
1.676061	68.417328
1.676176	73.665535
1.676290	73.650864
1.676405	52.597282
1.676520	47.328125
1.676635	52.576332
1.676749	63.079025
1.676864	63.066456
1.676979	57.799397
1.677094	73.548203
1.677208	52.523956
1.677323	52.513481
1.677438	68.253914
1.677553	52.492535
1.677668	52.482063
1.677783	41.977272
1.677898	41.968895
1.678012	57.695713
1.678128	73.416245
1.678243	73.401588
1.678358	62.903084
1.678473	62.890518
1.678588	47.158466
1.678703	52.387829
1.678818	62.852833
1.678933	47.130203
1.679048	62.827709
1.679163	52.345959
1.679279	52.335491
1.679394	52.325024
1.679509	62.777473
1.679624	47.073685
1.679740	41.834904
1.679855	52.283165
1.679971	73.181786
1.680086	31.357344
1.680201	47.026600
1.680317	62.689579
1.680432	62.677025
1.680548	46.998352
1.680663	41.767944
1.680779	52.199474
1.680894	26.094507
1.681010	36.524990
1.681125	57.384907
1.681241	57.373402
1.681357	41.717747
1.681472	31.282036
1.681588	57.338898
1.681704	57.327396
1.681819	62.526432
1.681935	41.675926
1.682051	26.042227
1.682167	52.073997
1.682282	46.857193
1.682398	67.669022
1.682514	62.451172
1.682630	46.828976
1.682746	36.415222
1.682862	20.804518
1.682978	46.800762
1.683094	41.592319
1.683210	31.187971
1.683326	31.181704
1.683442	41.567245
1.683558	41.558891
1.683674	62.325802
1.683790	62.313271
1.683907	41.533825
1.684023	36.334785
1.684139	36.327477
1.684255	41.508766
1.684371	72.625725
1.684488	41.492062
1.684604	57.040100
1.684720	51.844200
1.684837	57.017136
1.684953	31.093994
1.685069	41.450310
1.685186	31.081472
1.685302	41.433617
1.685419	67.316063
1.685535	46.594036
1.685652	46.584648
1.685768	31.050173
1.685885	46.565872
1.686001	62.075314
1.686118	46.547100
1.686234	20.683428
1.686351	51.698143
1.686468	36.181400
1.686584	36.174103
1.686701	41.333492
1.686818	10.331288
1.686934	51.646019
1.687051	36.144917
1.687168	41.300137
1.687285	46.453278
1.687402	36.123032
1.687519	36.115738
1.687636	36.108448
1.687752	61.887691
1.687869	41.250130
1.687986	46.397022
1.688103	67.004379
1.688221	36.071991
1.688337	36.064705
1.688455	36.057415
1.688572	46.350163
1.688689	25.744886
1.688806	25.739681
1.688923	36.028267
1.689040	46.312691
1.689157	51.448139
1.689275	30.862640
1.689392	30.856400
1.689509	30.850157
1.689626	30.843916
1.689744	15.418838
1.689861	25.692862
1.689978	35.962727
1.690096	30.818956
1.690213	41.083622
1.690331	35.940891
1.690448	25.666868
1.690566	30.794006
1.690683	25.656475
1.690801	46.172302
1.690918	35.904518
1.691036	30.769066
1.691154	46.144249
1.691271	20.504400
1.691389	25.625307
1.691507	46.116203
1.691624	25.614922
1.691742	30.731676
1.691860	20.483631
1.691978	20.479479
1.692095	25.594158
1.692213	30.706762
1.692331	20.467024
1.692449	30.694309
1.692567	40.917446
1.692685	51.136433
1.692803	35.788242
1.692921	25.557842
1.693039	30.663189
1.693157	45.985451
1.693275	45.976120
1.693393	35.751945
1.693511	30.638306
1.693629	40.842785
1.693747	20.417246
1.693865	35.722927
1.693983	25.511196
1.694102	30.607220
1.694220	30.601004
1.694338	30.594790
1.694456	20.392384
1.694575	35.679424
1.694693	25.480125
1.694811	20.379959
1.694930	25.469774
1.695048	30.557518
1.695166	20.367540
1.695285	10.181701
1.695403	30.538895
1.695522	40.710251
1.695641	35.614227
1.695759	20.346851
1.695878	20.342714
1.695996	25.423223
1.696115	30.501667
1.696234	35.578041
1.696352	30.489264
1.696471	25.402554
1.696590	30.476864
1.696708	25.392221
1.696827	30.464468
1.696946	40.611031
1.697065	25.376730
1.697183	35.520195
1.697302	25.366405
1.697421	15.216747
1.697540	10.142434
1.697659	35.491295
1.697778	30.414919
1.697897	10.136243
1.698016	30.402540
1.698135	35.462414
1.698254	20.260111
1.698373	30.383980
1.698492	30.377794
1.698611	30.371611
1.698730	25.304523
1.698850	20.239496
1.698969	5.058844
1.699088	20.231256
1.699207	10.113568
1.699327	25.278770
1.699446	10.109449
1.699565	35.375866
1.699685	10.105331
1.699804	25.258184
1.699923	25.253038
1.700043	30.297474
1.700162	15.145651
1.700282	15.142566
1.700401	15.139481
1.700521	20.181862
1.700640	30.266624
1.700760	20.173639
1.700879	25.211910
1.700999	20.165419
1.701119	25.201637
1.701238	15.117901
1.701358	15.114820
1.701478	10.074492
1.701597	25.181099
1.701717	20.140774
1.701837	25.170835
1.701957	5.033708
1.702077	20.128042
1.702196	25.153301
1.702316	35.200073
1.702436	25.138920
1.702556	25.136057
1.702676	20.109255
1.702796	30.158369
1.702916	20.114155
1.703036	5.055082
1.703156	35.072838
1.703276	5.045371
1.703396	10.017416
1.703516	15.095050
1.703637	20.045437
1.703757	25.014709
1.703877	20.075693
1.703997	10.036383
1.704118	15.113402
1.704238	10.306677
1.704358	25.004560
1.704478	5.353002
1.704599	19.873075
1.704719	19.954554
1.704839	29.744972
1.704960	25.065807
1.705080	20.184416
1.705201	15.327271
1.705321	5.484360
1.705442	15.374383
1.705562	24.686918
1.705683	24.657064
1.705804	14.818108
1.705924	15.484500
1.706045	24.804153
1.706165	5.529234
1.706286	28.944839
1.706407	34.471107
1.706528	24.415363
1.706648	5.008512
1.706769	10.723664
1.706890	2.619806
1.707011	25.041687
1.707132	14.188660
1.707253	15.025191
1.707373	24.577223
1.707494	18.564878
1.707615	29.021976
1.707736	20.577354
1.707857	7.852066
1.707978	2.982120
1.708099	1.250167
1.708220	15.030352
1.708342	10.021008
1.708463	25.770618
1.708584	16.529997
1.708705	15.035698
1.708826	17.480093
1.708948	20.900764
1.709069	18.286793
1.709190	25.486109
1.709311	23.161411
1.709433	22.051949
1.709554	10.033043
1.709675	13.251379
1.709797	11.148674
1.709918	20.076315
1.710040	11.234754
1.710161	16.300011
1.710283	9.945073
1.710404	11.096889
1.710526	18.277439
1.710647	16.489346
1.710769	22.212070
1.710891	16.080212
1.711012	18.561180
1.711134	19.893776
1.711256	4.949318
1.711377	8.429974
1.711499	16.638468
1.711621	18.342068
1.711743	15.109399
1.711864	17.589733
1.711986	21.293676
1.712108	14.087684
1.712230	11.208210
1.712352	7.979307
1.712474	22.341099
1.712596	23.995258
1.712718	12.877035
1.712840	19.788277
1.712962	25.253487
1.713084	7.676491
1.713206	30.232639
1.713328	20.221199
1.713451	10.359947
1.713573	12.760796
1.713695	12.481775
1.713817	19.361143
1.713939	19.703627
1.714062	11.680138
1.714184	14.438695
1.714306	17.304329
1.714429	18.226229
1.714551	3.071624
1.714673	15.619792
1.714796	13.322994
1.714918	15.224940
1.715041	11.950564
1.715163	1.748452
1.715286	3.399251
1.715408	15.241747
1.715531	20.599218
1.715654	8.610297
1.715776	16.763111
1.715899	10.171616
1.716022	18.930321
1.716144	14.295477
1.716267	2.657537
1.716390	8.895942
1.716512	21.609138
1.716635	21.863277
1.716758	10.187649
1.716881	15.284513
1.717004	14.992719
1.717127	9.154604
1.717250	18.389688
1.717373	5.098532
1.717496	12.976617
1.717619	19.510738
1.717742	17.011963
1.717865	16.125029
1.717988	10.204617
1.718111	9.452284
1.718234	18.249506
1.718357	13.931683
1.718480	6.424433
1.718603	12.101082
1.718727	4.504095
1.718850	15.317916
1.718973	3.823809
1.719096	14.800161
1.719220	11.202384
1.719343	11.153224
1.719466	5.551895
1.719590	25.955694
1.719713	15.320594
1.719837	5.862514
1.719960	15.321091
1.720084	15.321178
1.720207	10.214107
1.720331	15.619130
1.720454	5.946841
1.720578	5.106828
1.720702	20.426743
1.720825	10.672484
1.720949	14.675920
1.721073	5.305642
1.721196	10.211586
1.721320	0.000000
1.721444	15.792846
1.721568	5.104801
1.721691	5.374792
1.721815	5.228094
1.721939	10.207096
1.722063	10.102540
1.722187	30.332901
1.722311	10.374684
1.722435	15.304502
1.722559	25.297495
1.722683	10.385653
1.722807	10.199405
1.722931	20.251188
1.723055	5.056009
1.723179	15.440516
1.723303	15.259186
1.723428	10.246713
1.723552	25.431791
1.723676	10.227448
1.723800	5.140539
1.723925	10.186246
1.724049	15.306080
1.724173	5.091447
1.724298	5.095942
1.724422	5.097067
1.724546	0.009325
1.724671	-5.084002
1.724795	10.176215
1.724920	0.000282
1.725044	10.170136
1.725120	10.168209
1.725242	10.166282
1.725364	10.164355
1.725486	0.000000
1.725608	5.080251
1.725731	5.079288
1.725853	0.000000
1.725975	10.154722
1.726098	0.000000
1.726220	-5.075435
1.726342	20.297886
1.726465	0.000000
1.726587	25.362728
1.726710	0.000000
1.726832	5.070620
1.726955	-10.139315
1.727077	20.274778
1.727200	10.135464
1.727322	10.133538
1.727445	10.131613
1.727567	-5.064844
1.727690	20.255526
1.727813	10.125837
1.727935	-5.061956
1.728058	0.000000
1.728181	5.060031
1.728303	15.177208
1.728426	10.116214
1.728549	-5.057145
1.728672	10.112365
1.728795	5.055221
1.728918	10.108517
1.729041	5.053296
1.729163	5.052334
1.729286	15.154117
1.729409	15.151231
1.729532	0.000000
1.729655	10.096973
1.729778	5.047524
1.729901	10.093125
1.730024	15.136804
1.730147	15.133918
1.730271	10.087356
1.730394	5.042716
1.730517	-5.041754
1.730640	10.081586
1.730763	-5.039831
1.730886	20.155478
1.731010	-10.075816
1.731133	5.036947
1.731256	-5.035985
1.731380	15.105071
1.731503	10.068125
1.731626	0.000000
1.731750	10.064280
1.731873	10.062357
1.731997	15.090652
1.732120	5.029256
1.732244	15.084885
1.732367	-5.027334
1.732491	10.052745
1.732614	0.000000
1.732738	-5.024450
1.732862	5.023489
1.732985	-10.045056
1.733109	15.064701
1.733232	5.020606
1.733356	20.078581
1.733480	0.000000
1.733604	25.088615
1.733727	10.033525
1.733851	5.015801
1.733975	10.029681
1.734099	20.055519
1.734223	10.025838
1.734347	-5.011958
1.734471	15.032992
1.734594	15.030110
1.734718	10.018152
1.734842	10.016231
1.734966	10.014309
1.735090	0.000000
1.735214	5.005233
1.735339	10.008545
1.735463	5.003312
1.735587	10.004703
1.735711	5.001391
1.735835	10.000860
1.735960	19.997879
1.736084	14.995527
1.736208	19.990194
1.736332	14.989764
1.736457	0.000000
1.736581	9.989334
1.736705	14.981120
1.736830	0.000000
1.736954	14.975358
1.737078	14.972477
1.737203	9.979731
1.737327	9.977810
1.737452	24.939722
1.737576	4.986984
1.737701	4.986024
1.737826	9.970127
1.737950	-4.984103
1.738075	9.966286
1.738199	0.000000
1.738324	4.981222
1.738449	9.960525
1.738573	4.979302
1.738698	0.000000
1.738823	-4.977381
1.738948	9.952843
1.739072	9.950922
1.739197	9.949001
1.739322	9.947082
1.739447	19.890322
1.739572	14.914861
1.739697	4.970660
1.739822	9.939400
1.739947	0.000000
1.740072	9.935559
1.740197	9.933639
1.740322	4.965859
1.740447	-4.964899
1.740572	4.963939
1.740697	0.000000
1.740822	4.962019
1.740947	4.961059
1.741073	0.000000
1.741198	4.959139
1.741323	9.916357
1.741448	9.914437
1.741574	0.000000
1.741699	4.955298
1.741824	9.908677
1.741950	-4.953378
1.742075	0.000000
1.742200	4.951458
1.742326	4.950498
1.742451	0.000000
1.742577	19.794312
1.742702	-4.947618
1.742828	24.733290
1.742953	14.837094
1.743079	19.778952
1.743204	4.943778
1.743330	0.000000
1.743456	19.767431
1.743582	0.000000
1.743707	14.819814
1.743833	14.816934
1.743959	9.876036
1.744084	-4.937058
1.744210	0.000000
1.744336	0.000000
1.744462	9.868356
1.744588	-4.933218
1.744714	0.000000
1.744840	9.862596
1.744966	0.000000
1.745092	14.788134
1.745218	14.785254
1.745344	4.927458
1.745470	4.926498
1.745596	0.000000
1.745722	9.849155
1.745848	0.000000
1.745974	14.767974
1.746100	4.921698
1.746226	-9.841475
1.746353	0.000000
1.746479	4.918818
1.746605	0.000000
1.746731	14.750693
1.746858	4.915938
1.746984	14.744933
1.747110	14.742053
1.747237	0.000000
1.747363	9.824195
1.747490	9.822275
1.747616	0.000000
1.747743	4.909217
1.747869	9.816515
1.747996	0.000000
1.748122	4.906337
1.748249	9.810755
1.748375	4.904417
1.748502	14.710372
1.748629	-4.902497
1.748755	0.000000
1.748882	9.801154
1.749009	0.000000
1.749136	4.898657
1.749262	19.590788
1.749389	4.896737
1.749516	19.583107
1.749643	9.789633
1.749770	9.787713
1.749897	19.571585
1.750024	4.891936
1.750151	14.672929
1.750278	4.890016
1.750405	0.000000
1.750532	-4.888096
1.750659	4.887136
1.750786	14.658526
1.750913	4.885215
1.751040	9.768511
1.751167	19.533180
1.751294	9.764670
1.751422	0.000000
1.751549	14.641244
1.751676	-4.879455
1.751803	9.756989
1.751931	0.000000
1.752058	-4.876574
1.752185	4.875614
1.752313	-4.874654
1.752440	0.000000
1.752568	9.745466
1.752695	0.000000
1.752823	9.741626
1.752950	9.739705
1.753078	4.868892
1.753205	0.000000
1.753333	14.600916
1.753460	-4.866012
1.753588	4.865051
1.753716	-4.864091
1.753844	0.000000
1.753971	14.586513
1.754099	9.722421
1.754227	4.860250
1.754354	-4.859290
1.754482	4.858330
1.754610	0.000000
1.754738	4.856409
1.754866	4.855449
1.754994	9.708977
1.755122	9.707056
1.755250	0.000000
1.755378	4.851608
1.755506	4.850647
1.755634	14.549061
1.755762	-9.697453
1.755890	14.543299
1.756018	0.000000
1.756146	-4.845846
1.756274	0.000000
1.756402	9.687850
1.756531	-4.842965
1.756659	14.526012
1.756787	0.000000
1.756916	4.840084
1.757044	14.517369
1.757172	-4.838163
1.757300	19.348810
1.757429	4.836242
1.757558	9.670564
1.757686	4.834321
1.757814	-4.833361
1.757943	-4.832400
1.758071	0.000000
1.758200	4.830480
1.758329	0.000000
1.758457	14.485677
1.758586	4.827599
1.758714	4.826638
1.758843	-14.477033
1.758972	9.649434
1.759101	14.471271
1.759229	0.000000
1.759358	0.000000
1.759487	0.000000
1.759616	0.000000
1.759745	4.818955
1.759874	4.817994
1.760002	-4.817034
1.760131	0.000000
1.760260	9.630226
1.760389	9.628305
1.760518	9.626384
1.760647	9.624463
1.760776	4.811271
1.760905	0.000000
1.761034	0.000000
1.761164	0.000000
1.761293	9.614859
1.761422	4.806469
1.761551	9.611017
1.761680	9.609096
1.761810	-4.803587
1.761939	4.802627
1.762068	-9.603333
1.762198	4.800706
1.762327	4.799746
1.762457	0.000000
1.762586	4.797825
1.762715	0.000000
1.762845	9.591808
1.762974	4.794943
1.763104	-9.587966
1.763233	9.586045
1.763363	9.584125
1.763493	9.582204
1.763622	4.790141
1.763752	9.578362
1.763882	9.576441
1.764011	4.787260
1.764141	0.000000
1.764271	4.785339
1.764401	0.000000
1.764530	9.566836
1.764660	19.129831
1.764790	4.781497
1.764920	9.561074
1.765050	4.779577
1.765180	9.557232
1.765310	-4.777656
1.765440	9.553391
1.765570	-9.551470
1.765700	0.000000
1.765830	4.773814
1.765960	4.772854
1.766090	9.543787
1.766220	9.541866
1.766351	14.309918
1.766481	9.538025
1.766611	-4.768052
1.766741	0.000000
1.766872	0.000000
1.767002	4.765171
1.767132	9.528421
1.767263	0.000000
1.767393	4.762290
1.767524	0.000000
1.767654	19.041477
1.767784	23.797047
1.767915	0.000000
1.768045	9.514977
1.768176	4.756528
1.768306	0.000000
1.768437	-4.754608
1.768568	0.000000
1.768698	0.000000
1.768829	9.503455
1.768960	4.750767
1.769091	9.499614
1.769221	4.748847
1.769352	4.747887
1.769483	9.493853
1.769614	4.745966
1.769745	4.745006
1.769875	9.488092
1.770006	9.486172
1.770137	14.226377
1.770268	0.000000
1.770399	-4.740206
1.770530	4.739246
1.770661	9.476571
1.770792	4.737326
1.770924	4.736366
1.771055	0.000000
1.771186	14.203338
1.771317	4.733486
1.771448	4.732526
1.771580	9.463132
1.771711	0.000000
1.771842	4.729646
1.771973	0.000000
1.772105	-4.727726
1.772236	4.726767
1.772367	14.177421
1.772499	0.000000
1.772630	4.723887
1.772762	0.000000
1.772893	9.443935
1.773025	4.721008
1.773156	4.720048
1.773288	4.719089
1.773420	0.000000
1.773551	4.717169
1.773683	4.716210
1.773815	4.715250
1.773946	18.857162
1.774078	9.426662
1.774210	0.000000
1.774342	9.422824
1.774474	9.420905
1.774605	4.709493
1.774737	-4.708534
1.774869	9.415149
1.775001	0.000000
1.775133	14.116966
1.775265	4.704696
1.775397	9.407474
1.775529	-4.702777
1.775661	0.000000
1.775793	0.000000
1.775925	0.000000
1.776057	9.397882
1.776190	0.000000
1.776322	4.697022
1.776454	0.000000
1.776586	0.000000
1.776719	14.082436
1.776851	0.000000
1.776983	18.768909
1.777116	0.000000
1.777248	14.070928
1.777381	9.378701
1.777513	-4.688392
1.777645	0.000000
1.777778	0.000000
1.777910	4.685515
1.778043	9.369113
1.778176	4.683598
1.778308	4.682639
1.778441	4.681681
1.778574	9.361444
1.778706	4.679763
1.778839	0.000000
1.778972	9.355693
1.779104	9.353776
1.779237	9.351859
1.779370	4.674971
1.779503	9.348025
1.779636	9.346109
1.779769	-4.672096
1.779902	0.000000
1.780035	14.010540
1.780168	0.000000
1.780301	4.668264
1.780434	14.001917
1.780567	4.666348
1.780700	4.665390
1.780833	4.664432
1.780966	13.990421
1.781099	4.662516
1.781233	9.323116
1.781366	0.000000
1.781499	4.659643
1.781632	0.000000
1.781766	-4.657727
1.781899	-13.970309
1.782032	0.000000
1.782166	13.964564
1.782299	0.000000
1.782433	9.305880
1.782566	0.000000
1.782700	9.302051
1.782833	0.000000
1.782967	4.649111
1.783100	23.240768
1.783234	13.941589
1.783368	9.292480
1.783501	0.000000
1.783635	0.000000
1.783769	0.000000
1.783903	-4.642412
1.784036	4.641455
1.784170	-4.640498
1.784304	9.279083
1.784438	4.638585
1.784572	4.637629
1.784706	13.910015
1.784840	-9.271431
1.784974	0.000000
1.785108	9.267605
1.785242	-4.632846
1.785376	4.631890
1.785510	0.000000
1.785644	9.259955
1.785778	9.258043
1.785912	0.000000
1.786046	9.254219
1.786181	-4.626154
1.786315	13.875594
1.786449	4.624242
1.786584	0.000000
1.786718	4.622331
1.786852	4.621375
1.786987	0.000000
1.787121	0.000000
1.787256	0.000000
1.787390	0.000000
1.787524	-4.616599
1.787659	-4.615643
1.787794	0.000000
1.787928	0.000000
1.788063	0.000000
1.788197	9.223646
1.788332	-4.610868
1.788467	4.609913
1.788602	0.000000
1.788736	4.608004
1.788871	4.607049
1.789006	4.606095
1.789141	4.605141
1.789276	4.604186
1.789410	0.000000
1.789546	0.000000
1.789680	-4.601324
1.789815	-4.600369
1.789950	4.599416
1.790085	13.795385
1.790220	9.195016
1.790356	4.596554
1.790491	4.595601
1.790626	4.594647
1.790761	0.000000
1.790896	0.000000
1.791031	0.000000
1.791167	9.181666
1.791302	0.000000
1.791437	9.177854
1.791573	0.000000
1.791708	9.174042
1.791843	4.586068
1.791979	9.170230
1.792114	-4.584162
1.792250	0.000000
1.792385	0.000000
1.792521	-4.581305
1.792657	-4.580352
1.792792	0.000000
1.792928	9.156896
1.793063	4.577496
1.793199	0.000000
1.793335	4.575592
1.793471	13.723920
1.793606	0.000000
1.793742	13.718210
1.793878	9.143570
1.794014	0.000000
1.794150	-4.569882
1.794286	-4.568931
1.794421	0.000000
1.794557	4.567029
1.794693	9.132155
1.794829	-4.565127
1.794966	9.128352
1.795102	9.126451
1.795238	13.686824
1.795374	9.122648
1.795510	4.560374
1.795646	18.237694
1.795782	-4.558473
1.795919	4.557523
1.796055	0.000000
1.796191	13.666870
1.796328	-4.554673
1.796464	9.107448
1.796600	4.552774
1.796737	4.551825
1.796873	18.203501
1.797010	4.549926
1.797146	13.646931
1.797283	-9.096055
1.797419	-13.641236
1.797556	9.092259
1.797693	9.090363
1.797829	13.632697
1.797966	9.086568
1.798102	4.542336
1.798239	4.541387
1.798376	9.080878
1.798513	-4.539491
1.798650	9.077086
1.798787	-4.537595
1.798923	-4.536647
1.799060	4.535700
1.799197	4.534752
1.799334	0.000000
1.799471	4.532858
1.799608	4.531910
1.799745	9.061927
1.799882	4.530016
1.800019	9.058140
1.800157	-4.528123
1.800294	9.054354
1.800431	0.000000
1.800568	4.525284
1.800705	9.048676
1.800843	4.523392
1.800980	-4.522446
1.801117	-4.521500
1.801255	0.000000
1.801392	4.519609
1.801530	22.593317
1.801667	4.517718
1.801804	4.516773
1.801942	9.031655
1.802079	9.029766
1.802217	0.000000
1.802355	4.512993
1.802492	0.000000
1.802630	4.511105
1.802768	0.000000
1.802905	4.509216
1.803043	9.016544
1.803181	-9.014657
1.803319	0.000000
1.803456	0.000000
1.803594	9.008996
1.803732	-4.503554
1.803870	4.502612
1.804008	13.505005
1.804146	0.000000
1.804284	-4.499783
1.804422	0.000000
1.804560	8.995795
1.804698	-4.496955
1.804836	0.000000
1.804974	4.495071
1.805113	8.988259
1.805251	0.000000
1.805389	13.476739
1.805527	4.491305
1.805666	13.471091
1.805804	4.489422
1.805942	8.976963
1.806081	0.000000
1.806219	0.000000
1.806357	13.456979
1.806496	8.969439
1.806634	0.000000
1.806773	8.965678
1.806911	-4.481899
1.807050	8.961919
1.807189	4.480020
1.807327	-4.479080
1.807466	4.478141
1.807605	8.954404
1.807743	13.428789
1.807882	8.950648
1.808021	13.423157
1.808160	0.000000
1.808299	8.945018
1.808437	13.414713
1.808576	-8.941266
1.808715	-4.469695
1.808854	0.000000
1.808993	8.935640
1.809132	4.466883
1.809271	8.931891
1.809410	4.465009
1.809549	13.392216
1.809689	8.926270
1.809828	13.386597
1.809967	0.000000
1.810106	4.460326
1.810245	8.918781
1.810385	13.375364
1.810524	4.457519
1.810663	8.913168
1.810803	-8.911297
1.810942	4.454713
1.811081	4.453779
1.811221	-4.452844
1.811360	0.000000
1.811500	0.000000
1.811640	-4.450041
1.811779	13.347322
1.811919	4.448173
1.812058	17.788960
1.812198	-4.446306
1.812338	4.445373
1.812477	4.444440
1.812617	13.330522
1.812757	4.442575
1.812897	8.883284
1.813037	-4.440710
1.813176	8.879556
1.813316	4.438846
1.813456	0.000000
1.813596	0.000000
1.813736	4.436051
1.813876	8.870240
1.814016	-4.434189
1.814156	0.000000
1.814296	-4.432328
1.814436	4.431397
1.814577	-8.860935
1.814717	0.000000
1.814857	8.857215
1.814997	4.427678
1.815138	8.853498
1.815278	8.851640
1.815418	8.849781
1.815559	0.000000
1.815699	4.423034
1.815839	-4.422105
1.815980	-8.842354
1.816120	0.000000
1.816261	-4.419322
1.816401	-4.418394
1.816542	4.417467
1.816683	0.000000
1.816823	4.415613
1.816964	4.414686
1.817105	4.413760
1.817245	4.412834
1.817386	4.411908
1.817527	-8.821963
1.817668	-4.410056
1.817808	0.000000
1.817949	-8.816411
1.818090	0.000000
1.818231	-4.406356
1.818372	-8.810863
1.818513	4.404508
1.818654	4.403584
1.818795	8.805319
1.818936	8.803473
1.819077	8.801625
1.819219	4.399889
1.819360	0.000000
1.819501	4.398044
1.819642	4.397121
1.819783	0.000000
1.819924	4.395278
1.820066	0.000000
1.820207	4.393434
1.820349	0.000000
1.820490	4.391592
1.820631	4.390671
1.820773	4.389750
1.820914	0.000000
1.821056	0.000000
1.821197	0.000000
1.821339	4.386071
1.821481	0.000000
1.821622	13.152697
1.821764	0.000000
1.821906	4.382394
1.822047	-4.381476
1.822189	4.380558
1.822331	8.759280
1.822473	8.757444
1.822615	0.000000
1.822756	0.000000
1.822898	-4.375971
1.823040	-8.750109
1.823182	8.748276
1.823324	0.000000
1.823466	0.000000
1.823608	0.000000
1.823750	0.000000
1.823892	4.369559
1.824034	-4.368645
1.824177	4.367730
1.824319	0.000000
1.824461	8.731803
1.824603	0.000000
1.824746	-4.364074
1.824888	4.363161
1.825030	-8.724495
1.825173	0.000000
1.825315	8.720844
1.825458	4.359510
1.825600	8.717196
1.825743	4.357686
1.825885	4.356774
1.826028	4.355864
1.826170	8.709905
1.826313	13.062125
1.826455	-4.353131
1.826598	-4.352221
1.826741	4.351311
1.826884	-8.700804
1.827026	8.698985
1.827169	4.348583
1.827312	0.000000
1.827455	8.693532
1.827598	8.691716
1.827741	4.344950
1.827884	8.688085
1.828027	0.000000
1.828170	8.684456
1.828313	8.682643
1.828456	4.340415
1.828599	4.339509
1.828742	13.015808
1.828885	0.000000
1.829028	4.336792
1.829172	4.335886
1.829315	4.334982
1.829458	4.334077
1.829601	-4.333173
1.829745	4.332269
1.829888	4.331366
1.830031	8.660925
1.830175	4.329559
1.830318	0.000000
1.830462	0.000000
1.830605	12.980556
1.830749	8.651901
1.830892	12.975147
1.831036	8.648295
1.831180	4.323247
1.831323	0.000000
1.831467	8.642892
1.831611	4.320546
1.831755	0.000000
1.831898	0.000000
1.832042	4.317848
1.832186	21.584745
1.832330	-4.316051
1.832474	8.630305
1.832618	4.314255
1.832762	17.253429
1.832906	-8.624920
1.833050	-4.311563
1.833194	0.000000
1.833338	0.000000
1.833482	0.000000
1.833626	0.000000
1.833770	-4.307084
1.833914	-4.306189
1.834059	4.305294
